Timestamp(s),EMG_filtered,RMS
0.2607841491699219,-226.79493117883413,6.001417325287849e-06
0.2607841491699219,-245.90982227365356,5.367134807106464e-05
0.2607841491699219,105.18344813022354,0.0002426043874110494
0.2607841491699219,95.77802732193294,0.0007563816514722015
0.2607841491699219,154.9284378549438,0.0018630198203979905
0.2607841491699219,186.49461012440585,0.003908833696875914
0.2607841491699219,125.43360340479514,0.007312067826467383
0.2607841491699219,208.99343773840877,0.012556336936289282
0.2607841491699219,116.94991218471641,0.02018404850265141
0.2607841491699219,93.00260272912598,0.030790188233650904
0.2607841491699219,-8.441890920039782,0.0450167707781334
0.2607841491699219,-65.57900488478377,0.0635477595653521
0.2607841491699219,150.73502768131578,0.0871047542309531
0.2607841491699219,255.58838196199767,0.11644516366078397
0.2607841491699219,33.8695023624594,0.15236328077183225
0.2607841491699219,-268.61169688936496,0.19569137589179836
0.2607841491699219,-724.7738570214151,0.2472981169703296
0.2607841491699219,-721.4121679089571,0.30808446433235026
0.2607841491699219,-415.00467459270203,0.3789783792967665
0.2607841491699219,-344.48860299514865,0.4609294825543799
0.2607841491699219,-81.37675087804337,0.5549043443404513
0.2607841491699219,93.77151176887236,0.661882412157575
0.2607841491699219,287.81181112235186,0.7828522182805949
0.2607841491699219,344.3571511246282,0.9188076066079011
0.2607841491699219,341.35373802498975,1.0707439141699984
0.2607841491699219,328.0538564152904,1.239654119088653
0.2607841491699219,274.47508949529276,1.426524946430851
0.2607841491699219,270.27487373032636,1.6323329468309147
0.2607841491699219,205.31718540557995,1.8580406338614115
0.2607841491699219,163.36848284403388,2.104592791702141
0.2607841491699219,56.20454495408747,2.3729130202903805
0.2607841491699219,-8.210740418064702,2.6639005291510434
0.2607841491699219,181.3247821570738,2.978427171587508
0.2607841491699219,299.7878369411304,3.3173347110548197
0.2607841491699219,39.19804307762155,3.6814323116776597
0.2607841491699219,-258.563187321662,4.07149424501591
0.2607841491699219,-737.6262737995771,4.488257805320731
0.2607841491699219,-714.4511114984213,4.9324214256638905
0.2607841491699219,-431.1163808151432,5.404642987462526
0.2607841491699219,-361.60877949737886,5.905538316060573
0.2607841491699219,-100.69377764274003,6.435679855166814
0.2607841491699219,62.666602226018,6.995595513087737
0.2607841491699219,268.5703500457157,7.585767673831201
0.2607841491699219,308.6463337961902,8.206632366294249
0.2607841491699219,316.122349278382,8.858578584885239
0.2607841491699219,287.0163885030348,9.541947755066744
0.2607841491699219,248.47161456735026,10.257033337441445
0.2607841491699219,242.42977793069315,11.00408056413834
0.2607841491699219,181.53421578133245,11.783286301391147
0.2607841491699219,136.53407734230493,12.594799032334693
0.3099672794342041,81.39404401787648,6.035075521585977e-06
0.3099672794342041,100.89175843397308,5.3907521070780474e-05
0.3099672794342041,244.28582211986796,0.00024399366647140592
0.3099672794342041,374.8833778709466,0.0007640126516064782
0.3099672794342041,109.52199247145396,0.0018951207495682117
0.3099672794342041,-186.41542533981203,0.0040116871305156355
0.3099672794342041,-663.3762602556154,0.007578122645443295
0.3099672794342041,-676.3823679981563,0.013142795231812762
0.3099672794342041,-381.6228793770052,0.0213305432488737
0.3099672794342041,-321.7459794873084,0.032835060196279915
0.3099672794342041,-65.3312134481148,0.04841192689569121
0.3099672794342041,101.22521348344765,0.06887228722219003
0.3099672794342041,297.0703241611481,0.09507666967209129
0.3099672794342041,340.3861052875259,0.12792886695043706
0.3099672794342041,332.47154339603037,0.16837035983184284
0.3099672794342041,302.0440227328947,0.2173752779462756
0.3099672794342041,256.84500893258644,0.27594521896220153
0.3099672794342041,265.27809100592197,0.34510367988021223
0.3099672794342041,189.45408671007277,0.4258904336121333
0.3099672794342041,149.14327231284219,0.5193562251695344
0.3099672794342041,35.526302465865626,0.6265579646305186
0.3099672794342041,-22.633658445254454,0.7485542936619409
0.3099672794342041,165.74288307330715,0.8864018389602685
0.3099672794342041,277.32553516735925,1.0411535335742053
0.3099672794342041,24.056180245635403,1.2138595006788768
0.3099672794342041,-249.21957984044826,1.4055683333587417
0.3099672794342041,-734.40544146041,1.617326344747539
0.3099672794342041,-756.7214343006575,1.8501746133632688
0.3099672794342041,-449.55374119508156,2.105144881554305
0.3099672794342041,-382.14835028479155,2.3832551734589735
0.3099672794342041,-122.36365622764828,2.685505583982574
0.3099672794342041,52.637784166245126,3.012874357553573
0.3099672794342041,253.45442313114847,3.3663142471168395
0.3099672794342041,307.3437388795787,3.7467491439817913
0.3099672794342041,306.62548923519535,4.155070969303092
0.3099672794342041,139.9506132132742,4.592136818130933
0.3099672794342041,205.79574123005187,5.058766347127032
0.3099672794342041,436.7567196931044,5.5557393972012195
0.3099672794342041,198.45269168909877,6.083793842481787
0.3099672794342041,188.51575646497818,6.643623657190735
0.3099672794342041,66.51213693290276,7.235877192152513
0.3099672794342041,-39.875469263169904,7.861155652821827
0.3099672794342041,192.34415470498973,8.520011770872657
0.3099672794342041,247.2696615718143,9.212948661546523
0.3099672794342041,49.2107807189025,9.9404188591135
0.3099672794342041,-252.5492430251365,10.702823522954263
0.3099672794342041,-707.5076753440119,11.500511806925676
0.3099672794342041,-760.9101844574097,12.333780384825882
0.3099672794342041,-452.3301174033833,13.202873124927805
0.3099672794342041,-370.9677246914429,14.107980906701988
0.3800394535064697,-231.3292623792798,5.94539834661513e-06
0.3800394535064697,-253.24398693492958,5.3091169548979386e-05
0.3800394535064697,103.85400444775834,0.0002396168280537865
0.3800394535064697,122.55369604321831,0.0007461036494016216
0.3800394535064697,164.90504885636716,0.0018360926085808993
0.3800394535064697,181.19299974943561,0.0038506433263675835
0.3800394535064697,130.65609372633088,0.00720256995926326
0.3800394535064697,167.21435280373183,0.01237013707527833
0.3800394535064697,95.15925308831609,0.019890576187174002
0.3800394535064697,90.45582504701531,0.030353923404204685
0.3800394535064697,-0.5916328946849205,0.04439746930313695
0.3800394535064697,-50.526882691795095,0.06270061932895724
0.3800394535064697,156.26760675907806,0.08598045195993824
0.3800394535064697,274.24306186399645,0.11498963790078663
0.3800394535064697,34.45859322593276,0.15051729926575777
0.3800394535064697,-242.3188311970388,0.19339021620731242
0.3800394535064697,-692.322988974423,0.24447158836070812
0.3800394535064697,-719.8740037137686,0.30465718453584245
0.3800394535064697,-439.4047887621151,0.3748701397883537
0.3800394535064697,-353.18961314396,0.45605559300848925
0.3800394535064697,-96.26985648053716,0.5491758976606558
0.3800394535064697,78.97405075356579,0.655206469512088
0.3800394535064697,288.7788732379779,0.7751319546814521
0.3800394535064697,333.27810049749525,0.9099424570364006
0.3800394535064697,340.64994611916563,1.0606297274598633
0.3800394535064697,222.42463970113727,1.2281833063849592
0.3800394535064697,246.95575134841118,1.4135866233115228
0.3800394535064697,392.6209853917068,1.6178130786741742
0.3800394535064697,215.85422755945652,1.8418221892849442
0.3800394535064697,189.5051994226992,2.0865559040801496
0.3800394535064697,69.88771494058179,2.352935156514651
0.3800394535064697,-16.36238034467455,2.6418566648451716
0.3800394535064697,201.06792634147322,2.9541899720139986
0.3800394535064697,277.1817128071234,3.29077471698476
0.3800394535064697,50.55390422361086,3.6524181295220832
0.3800394535064697,-249.42748300041882,4.039892740546762
0.3800394535064697,-698.4221237967527,4.453934300337608
0.3800394535064697,-727.982673004322,4.89523989699038
0.3800394535064697,-466.5192921882618,5.36446626768304
0.3800394535064697,-369.6239386557948,5.862228295435119
0.3800394535064697,-127.82663496324125,6.389097684187051
0.3800394535064697,55.6115024228975,6.945601805163049
0.3800394535064697,250.45054078769823,7.5322227076183434
0.3800394535064697,302.3881981593923,8.14939628720834
0.3800394535064697,306.2989680947711,8.79751160535358
0.3800394535064697,291.5175278049501,9.476910353110073
0.3800394535064697,249.4422388468491,10.187886453189789
0.3800394535064697,236.10986929636317,10.930685793910689
0.3800394535064697,178.80832494739838,11.705506088989655
0.3800394535064697,136.2863534093643,12.512496857225011
0.44965600967407227,75.4938155175435,6.00448527984586e-06
0.44965600967407227,99.91382877677829,5.363960720152525e-05
0.44965600967407227,250.36873039130643,0.0002427886905709469
0.44965600967407227,372.1462790822806,0.0007601818649209784
0.44965600967407227,110.92719490073233,0.001885284232637292
0.44965600967407227,-187.81173407912905,0.003989926144025196
0.44965600967407227,-649.3923467137397,0.0075351610602980585
0.44965600967407227,-664.3479384222333,0.01306529509090619
0.44965600967407227,-398.26229068654135,0.021200487701770694
0.44965600967407227,-320.5370004854385,0.03262920347768332
0.44965600967407227,-70.96365194777462,0.048101308210246274
0.44965600967407227,96.05950826444581,0.06842187365900954
0.44965600967407227,294.92575707373356,0.09444533677979566
0.44965600967407227,335.9996338114835,0.127069734851507
0.44965600967407227,337.2274841508436,0.16723094301415053
0.44965600967407227,310.5474698819442,0.2158969219189326
0.44965600967407227,264.7010681737212,0.274061969803403
0.44965600967407227,245.32748381298074,0.3427410018475708
0.44965600967407227,185.63691255674956,0.42296396722352453
0.44965600967407227,148.65321622072685,0.515770650593177
0.44965600967407227,32.8472449278614,0.6222060565528978
0.44965600967407227,-16.286539125264085,0.7433162111204736
0.44965600967407227,169.14182389801266,0.8801445582297464
0.44965600967407227,282.86591045792693,1.0337302783764795
0.44965600967407227,24.219376660859695,1.2051090860108513
0.44965600967407227,-255.50873977930075,1.3953144458339013
0.44965600967407227,-722.355151670477,1.6053768702728075
0.44965600967407227,-733.6766510696559,1.836321090865338
0.44965600967407227,-466.51242281433434,2.089162081016894
0.44965600967407227,-379.2845741613037,2.3649007810857112
0.44965600967407227,-124.07673328024396,2.664519987618743
0.44965600967407227,45.1786925279244,2.988980526722515
0.44965600967407227,256.6102709743154,3.3392177021947633
0.44965600967407227,300.5332256397259,3.7161380092001526
0.44965600967407227,313.8363173739154,4.120616104430545
0.44965600967407227,280.5524316483775,4.553492023847161
0.44965600967407227,247.17764264915348,5.015568639258517
0.44965600967407227,240.55966598920958,5.507609345144214
0.44965600967407227,174.42018247189182,6.030335967290422
0.44965600967407227,143.59033639420116,6.584426884958334
0.44965600967407227,42.329592955858374,7.170515358461752
0.44965600967407227,-16.150149697061693,7.789188054184506
0.44965600967407227,174.6283697069959,8.44098375922233
0.44965600967407227,293.18464374189386,9.126392277987318
0.44965600967407227,33.688329969089494,9.845853503265946
0.44965600967407227,-225.03405651948503,10.599756654373993
0.44965600967407227,-698.5550673782678,11.388439675203323
0.44965600967407227,-733.6301240592497,12.212188785106608
0.44965600967407227,-457.65387583082247,13.07123817571636
0.44965600967407227,-369.49179330122473,13.965769846944303
0.5225217342376709,-229.58270517614517,5.925658971218987e-06
0.5225217342376709,-251.7541876584907,5.2924066725578645e-05
0.5225217342376709,104.13771675647361,0.00023890678250810377
0.5225217342376709,125.49343579828385,0.0007440072802001702
0.5225217342376709,163.97224678241122,0.0018310973114363921
0.5225217342376709,176.9179746782903,0.003840229321082166
0.5225217342376709,127.67903608469065,0.007182776486101251
0.5225217342376709,162.1266072379048,0.012335122885207873
0.5225217342376709,94.59672285352649,0.01983222528447747
0.5225217342376709,91.64550113800368,0.03026150689507123
0.5225217342376709,-1.421831785505347,0.04425737868352982
0.5225217342376709,-50.02081202783701,0.06249617024734003
0.5225217342376709,156.21914949841747,0.08569167148622273
0.5225217342376709,276.2794425622425,0.11459289992111268
0.5225217342376709,35.63301042624008,0.14998481365100866
0.5225217342376709,-229.6012947313809,0.19268955806442317
0.5225217342376709,-677.1765686829144,0.24356540617846378
0.5225217342376709,-727.4261878796981,0.3035030625879112
0.5225217342376709,-447.08129864411995,0.37342053746580695
0.5225217342376709,-357.4553529014644,0.4542578135706585
0.5225217342376709,-101.67772630155451,0.5469720726019419
0.5225217342376709,75.66180221717454,0.6525335644171204
0.5225217342376709,284.95431146835386,0.7719217950099754
0.5225217342376709,332.344435184331,0.90612176153699
0.5225217342376709,338.1762924310316,1.0561201473687836
0.5225217342376709,235.76256822630054,1.2229014743192719
0.5225217342376709,251.72194504454555,1.4074442106626852
0.5225217342376709,371.3035034391196,1.6107168643131615
0.5225217342376709,203.37883015739487,1.8336741451036427
0.5225217342376709,186.947086821842,2.0772532979821134
0.5225217342376709,82.41958112238152,2.342370671298192
0.5225217342376709,-10.939619565001735,2.6299185317989155
0.5225217342376709,200.9551249844733,2.9407621180849146
0.5225217342376709,287.4177209332918,3.275736924417857
0.5225217342376709,51.89999774176158,3.6356462069094677
0.5225217342376709,-231.7030753348737,4.021258704261592
0.5225217342376709,-675.5881481996757,4.433306565365633
0.5225217342376709,-731.3317048813406,4.872483476208237
0.5225217342376709,-480.0952389425412,5.339442978668294
0.5225217342376709,-375.1836165096684,5.83479697392817
0.5225217342376709,-137.09708185705756,6.359114403359508
0.5225217342376709,46.469528833798336,6.912920099880977
0.5225217342376709,247.28982722636016,7.496693802921926
0.5225217342376709,301.2449929490447,8.110869330262004
0.5225217342376709,309.6259487175544,8.755833900152414
0.5225217342376709,285.20381029095336,9.431927597259564
0.5225217342376709,246.86372257776043,10.13944297610641
0.5225217342376709,238.2392423018124,10.878624795820718
0.5225217342376709,170.56375071889624,11.64966988013282
0.5225217342376709,137.11344591423082,12.452727096698116
0.5967366695404053,78.7965999721891,6.0098024512828295e-06
0.5967366695404053,98.13071922635055,5.3671120374868624e-05
0.5967366695404053,244.71402183671674,0.0002428179433376948
0.5967366695404053,374.40273623448616,0.0007598447478745437
0.5967366695404053,109.81842087320865,0.0018833882168118703
0.5967366695404053,-162.7377144200509,0.003983974656548498
0.5967366695404053,-624.7608475424623,0.007521045042796626
0.5967366695404053,-685.2061981919701,0.013037119425082188
0.5967366695404053,-410.29956720612523,0.021150457618106987
0.5967366695404053,-330.6165527839972,0.03254752271466415
0.5967366695404053,-81.86781137563878,0.047976061420992484
0.5967366695404053,91.4004906764392,0.06823888864692167
0.5967366695404053,288.0305600201999,0.09418804165966556
0.5967366695404053,333.7468607004494,0.12671902403023572
0.5967366695404053,332.1742459822564,0.16676505040066064
0.5967366695404053,307.5038021163466,0.21529129917304646
0.5967366695404053,262.13752077867696,0.27328917287591853
0.5967366695404053,255.5139255443043,0.3417705840407026
0.5967366695404053,181.99263711527524,0.42176237953747353
0.5967366695404053,144.11224078279474,0.5143011620596802
0.5967366695404053,43.356133653874224,0.6204287137635943
0.5967366695404053,-18.042840969364136,0.7411878452344371
0.5967366695404053,176.20476144633383,0.8776188152042179
0.5967366695404053,293.2204695473208,1.0307576176212394
0.5967366695404053,30.15744048365238,1.2016367089736455
0.5967366695404053,-232.3671870469198,1.3912861794039164
0.5967366695404053,-698.0459531188866,1.6007330605286403
0.5967366695404053,-741.3493007628899,1.8309985303533896
0.5967366695404053,-477.45141909376736,2.0830939633557506
0.5967366695404053,-384.36081039016113,2.358016676878287
0.5967366695404053,-131.85186440891061,2.656745840018691
0.5967366695404053,41.840991109449476,2.980238665467986
0.5967366695404053,250.28925431807846,3.329426874959427
0.5967366695404053,296.5674091040967,3.705213429147624
0.5967366695404053,309.03285049780857,4.108469512894018
0.5967366695404053,282.9115773441928,4.540031767091107
0.5967366695404053,244.64498715124583,5.00069975831381
0.5967366695404053,234.00507085401387,5.491233677741923
0.5967366695404053,179.98887342727042,6.012352260952849
0.5967366695404053,133.60628120295968,6.564730920338592
0.5967366695404053,33.44547695089406,7.149000082055378
0.5967366695404053,-12.879276308071141,7.7657437195681345
0.5967366695404053,174.73785053973202,8.415498076005507
0.5967366695404053,300.9086840663202,9.09875056769393
0.5967366695404053,36.79241976089196,9.815938861391624
0.5967366695404053,-224.2460245078922,10.56745011789513
0.5967366695404053,-689.705918576906,11.353620394842064
0.5967366695404053,-727.6054009295225,12.17473420168434
0.5967366695404053,-460.60536226952314,13.031024199955766
0.5967366695404053,-369.407710795562,13.922671042107158
0.6740775108337402,-225.87686905923772,5.908614755701082e-06
0.6740775108337402,-245.0980152706349,5.2786860612902454e-05
0.6740775108337402,105.34676091222136,0.00023835489993833642
0.6740775108337402,123.57574951272092,0.0007424611483048741
0.6740775108337402,162.14420158764074,0.0018275680669591326
0.6740775108337402,144.93982616513821,0.003833092894715185
0.6740775108337402,116.45090879406712,0.007169472099185016
0.6740775108337402,199.32849149065714,0.012311837208166546
0.6740775108337402,97.27286292854328,0.019793591255680667
0.6740775108337402,89.9096063600374,0.030200341261254204
0.6740775108337402,-3.6759367610688685,0.0441644872325538
0.6740775108337402,-51.50844269335502,0.062360214652109856
0.6740775108337402,162.5626973682165,0.08549901612632427
0.6740775108337402,269.6075972224244,0.11432735325764441
0.6740775108337402,40.36178924335138,0.1496273170898726
0.6740775108337402,-227.97595201160763,0.19221796605883268
0.6740775108337402,-664.7491445941786,0.2429544102529533
0.6740775108337402,-730.1972415612906,0.30272421179603354
0.6740775108337402,-456.2025793337198,0.3724423040744411
0.6740775108337402,-358.8698910029053,0.453045674000182
0.6740775108337402,-109.77143699890803,0.5454885908810851
0.6740775108337402,72.12758840612034,0.6507384465473108
0.6740775108337402,280.9604645393259,0.7697718158247258
0.6740775108337402,332.7924380670134,0.9035705296753396
0.6740775108337402,337.28262656400125,1.0531178990803869
0.6740775108337402,256.5321997136769,1.2193951056058032
0.6740775108337402,253.19640216817987,1.403377522062252
0.6740775108337402,348.66346344583735,1.606030885645316
0.6740775108337402,205.07574923990418,1.8283074715512992
0.6740775108337402,179.34035147104765,2.0711424178487587
0.6740775108337402,79.73366878778315,2.33545028024287
0.6740775108337402,-8.264590234858503,2.6221218338092394
0.6740775108337402,204.58499537058654,2.9320211134484935
0.6740775108337402,296.1457735242546,3.265982684952558
0.6740775108337402,53.02672073347358,3.62480913871285
0.6740775108337402,-209.4120667617903,4.009268798239656
0.6740775108337402,-661.8880609204923,4.4200936358007095
0.6740775108337402,-741.1057938552049,4.857977387625437
0.6740775108337402,-485.17816394958425,5.323573861259402
0.6740775108337402,-379.88377563767415,5.817495427791235
0.6740775108337402,-145.33728694174226,6.340311691811649
0.6740775108337402,40.124553614317676,6.892548332101057
0.6740775108337402,245.60273579991832,7.474686106178817
0.6740775108337402,301.40803890660504,8.087160011983082
0.6740775108337402,308.35521403469505,8.730358600085799
0.6740775108337402,224.30422637666229,9.404623429982344
0.6740775108337402,227.06112474043147,10.110248664129736
0.6740775108337402,315.8956447664966,10.847480793541212
0.6740775108337402,178.73670304922982,11.616518488878167
0.6740775108337402,154.59990918037624,12.417512571113118
0.7441055774688721,80.61033245236737,5.9942133573469856e-06
0.7441055774688721,100.84046750071553,5.353109004635677e-05
0.7441055774688721,242.78404537932516,0.00024216895050889717
0.7441055774688721,370.931212516649,0.0007577617139696751
0.7441055774688721,108.5765077540025,0.0018781679106472753
0.7441055774688721,-154.22172159484816,0.003973039205214727
0.7441055774688721,-595.2294483938545,0.007500989919978615
0.7441055774688721,-683.3147998106078,0.013003839199382158
0.7441055774688721,-436.87165840211287,0.02109930049069861
0.7441055774688721,-335.8304126172394,0.03247343958738274
0.7441055774688721,-93.20311979719338,0.04787373483382994
0.7441055774688721,83.07189163500885,0.06810284670230238
0.7441055774688721,285.21825510364795,0.09401274416196838
0.7441055774688721,331.4128151923031,0.12649891574538194
0.7441055774688721,334.52005472072165,0.1664946304655009
0.7441055774688721,241.59177811889506,0.21496525311589706
0.7441055774688721,244.4596252316041,0.2729025562005791
0.7441055774688721,332.12035427276226,0.34131903073288056
0.7441055774688721,193.21478713944106,0.4212423211814656
0.7441055774688721,167.11640154883136,0.5137100395130221
0.7441055774688721,60.398666536856965,0.6197651573023865
0.7441055774688721,-24.186542724056338,0.7404518091156477
0.7441055774688721,183.54162372967264,0.876811650601008
0.7441055774688721,279.41897626284583,1.0298820348597992
0.7441055774688721,36.366196445575554,1.2006966249440811
0.7441055774688721,-230.51862895594434,1.3902865670589184
0.7441055774688721,-689.4380993939681,1.5996799056962068
0.7441055774688721,-754.2312054706952,1.8298988736769677
0.7441055774688721,-482.6660779836529,2.0819559623686805
0.7441055774688721,-386.8010053175921,2.3568496617031687
0.7441055774688721,-147.3196546579286,2.655560360238836
0.7441055774688721,36.4826854744899,2.9790465286133636
0.7441055774688721,242.62549342114858,3.3282411770373037
0.7441055774688721,301.4161665742877,3.7040485776360716
0.7441055774688721,308.60619851825845,4.107341242604593
0.7441055774688721,272.4638152252344,4.53895714929533
0.7441055774688721,241.98303692013673,4.999697203516527
0.7441055774688721,260.6295803109483,5.490322932473294
0.7441055774688721,175.82585944353255,6.011554398939519
0.7441055774688721,148.31480673405898,6.564068328403584
0.7441055774688721,53.62224486723986,7.1484964410853955
0.7441055774688721,-24.138073208724393,7.765423980876296
0.7441055774688721,177.1088642249631,8.415388433407019
0.7441055774688721,292.8033094570303,9.098878425601871
0.7441055774688721,36.777637157757084,9.816332799229848
0.7441055774688721,-221.75230856487966,10.568139851115259
0.7441055774688721,-672.5031853977744,11.35463673282177
0.7441055774688721,-729.3636436174838,12.17610900277439
0.7441055774688721,-480.37604438857085,13.032790323933863
0.7441055774688721,-373.6907314225017,13.924862300287208
0.8136024475097656,-234.37454160525812,5.967029468347889e-06
0.8136024475097656,-257.2338937659071,5.333228572426646e-05
0.8136024475097656,102.111707877489,0.00024092621731539195
0.8136024475097656,123.87536555719134,0.0007507478071668958
0.8136024475097656,168.59640508911423,0.0018483838261394601
0.8136024475097656,118.79612371863816,0.0038770433579145887
0.8136024475097656,110.25420508231088,0.007251352129917767
0.8136024475097656,248.4631415373055,0.01245088625188724
0.8136024475097656,106.89486673409826,0.020013674305866692
0.8136024475097656,109.94333579786701,0.030530080815431997
0.8136024475097656,10.108449795681537,0.04463737027769745
0.8136024475097656,-60.9519749774563,0.0630146882930285
0.8136024475097656,167.11433390210823,0.08637853586404945
0.8136024475097656,262.3117877851986,0.11548030872862693
0.8136024475097656,41.88342645617985,0.1511068020035002
0.8136024475097656,-228.88291609048935,0.19408144798047544
0.8136024475097656,-657.4797412181633,0.24526338133701536
0.8136024475097656,-735.8757962420603,0.3055438499370121
0.8136024475097656,-467.92139054703114,0.37584114010875147
0.8136024475097656,-363.41287010421286,0.45709526698508696
0.8136024475097656,-120.8162727049563,0.5502632162173189
0.8136024475097656,65.47785945237436,0.6563148282679946
0.8136024475097656,271.28537106034,0.7762289968583054
0.8136024475097656,332.90362417904714,0.91098991118009
0.8136024475097656,338.60950912630733,1.0615832746599894
0.8136024475097656,289.5984496359483,1.2289925000748236
0.8136024475097656,262.87245196527806,1.4141948547219592
0.8136024475097656,304.64425066146407,1.618157572594102
0.8136024475097656,199.9014844688351,1.8418340255479186
0.8136024475097656,166.4014153928585,2.0861600630382573
0.8136024475097656,74.60221460275024,2.3520505865703236
0.8136024475097656,-3.785552650575383,2.640396370625849
0.8136024475097656,199.06423544049912,2.952061121818917
0.8136024475097656,304.75317801434915,3.287878768176775
0.8136024475097656,48.68962928200125,3.6486509705803805
0.8136024475097656,-198.75830991758227,4.035144848538569
0.8136024475097656,-654.048515675186,4.448090912608579
0.8136024475097656,-736.9789790900795,4.8881811959141785
0.8136024475097656,-489.19524459591906,5.356067577350849
0.8136024475097656,-380.0682811053603,5.852360289205252
0.8136024475097656,-140.63127137910948,6.377626602053673
0.8136024475097656,41.736712841235374,6.9323896799411076
0.8136024475097656,248.34599989304354,7.517127598979215
0.8136024475097656,298.73539231264226,8.132272522637463
0.8136024475097656,313.8014200448001,8.778210027137362
0.8136024475097656,278.0760245453258,9.455278570494768
0.8136024475097656,248.36177558585874,10.163769098889679
0.8136024475097656,246.47608849208794,10.903924784176962
0.8136024475097656,175.15410520699018,11.675940886484657
0.8136024475097656,137.56347691252338,12.479964735979248
0.8883240222930908,73.50094896524887,5.995139937316265e-06
0.8883240222930908,92.45809924030746,5.352837018704495e-05
0.8883240222930908,246.64173180895102,0.00024205193334121916
0.8883240222930908,375.0746822714264,0.0007569179742679969
0.8883240222930908,110.94218636170515,0.0018747102434980428
0.8883240222930908,-138.98925053188376,0.003962908027285346
0.8883240222930908,-594.0407260009324,0.007477235531088597
0.8883240222930908,-695.7987258856542,0.012956112367386486
0.8883240222930908,-430.57151136659934,0.02101344361040878
0.8883240222930908,-337.78515124556986,0.032331129305409156
0.8883240222930908,-92.32999710020152,0.04765214838684033
0.8883240222930908,87.96081848422546,0.06777428032043123
0.8883240222930908,281.83344872163184,0.09354407135220175
0.8883240222930908,332.255187743674,0.12585084865683968
0.8883240222930908,331.395525583356,0.16562093297053443
0.8883240222930908,274.73599030114076,0.2138120846226484
0.8883240222930908,248.9797483796058,0.27140797147344764
0.8883240222930908,288.7975732313623,0.33941258547082465
0.8883240222930908,183.06364052321288,0.4188447653740252
0.8883240222930908,154.71732638015735,0.5107331074139853
0.8883240222930908,56.31626635458824,0.616111458858009
0.8883240222930908,-25.74165473215065,0.7360147993706037
0.8883240222930908,187.98392150028252,0.8714756071973226
0.8883240222930908,292.5782862312602,1.023521934456747
0.8883240222930908,36.82825593765904,1.1931778881933135
0.8883240222930908,-212.9517227321537,1.3814648062660888
0.8883240222930908,-656.2235172335395,1.5894008094882868
0.8883240222930908,-741.491779608229,1.8179982182448875
0.8883240222930908,-511.07710838818673,2.068259686980517
0.8883240222930908,-390.1563552473699,2.3411739850403306
0.8883240222930908,-143.29402819034755,2.637711934607106
0.8883240222930908,45.27071682443511,2.9588226294666606
0.8883240222930908,246.32191248891658,3.3054299253353068
0.8883240222930908,288.9383864044777,3.6784291926387462
0.8883240222930908,298.90149267165145,4.07868432278721
0.8883240222930908,204.30806519296573,4.507024979146724
0.8883240222930908,214.81003146760924,4.964244084061155
0.8883240222930908,296.5815632198503,5.4510955334340805
0.8883240222930908,170.3735163388447,5.9682921305335785
0.8883240222930908,155.42094697156088,6.516503730836624
0.8883240222930908,65.08848410855495,7.096355589882973
0.8883240222930908,-22.28490633625563,7.708426906261126
0.8883240222930908,195.61891502201607,8.35324955200122
0.8883240222930908,292.66819559953507,9.03130698280135
0.8883240222930908,47.50417607859313,9.74303332066505
0.8883240222930908,-209.8820983539034,10.488812601678157
0.8883240222930908,-646.8184677099218,11.268978181803298
0.8883240222930908,-723.7939722934295,12.08381229371956
0.8883240222930908,-498.7223141080625,12.933545747883505
0.8883240222930908,-372.46928617189167,13.818357771135647
0.9650168418884277,-230.6127260908143,5.875610637580246e-06
0.9650168418884277,-252.1734690981434,5.252510700471069e-05
0.9650168418884277,102.51792856391017,0.00023733526721557194
0.9650168418884277,123.12420727868,0.000739743300374189
0.9650168418884277,164.96253269930082,0.0018217221119767129
0.9650168418884277,171.63682095312333,0.003821909031493409
0.9650168418884277,126.25121152846403,0.007149473936011882
0.9650168418884277,170.63000171619814,0.012277747826343513
0.9650168418884277,90.90261402724161,0.0197378235103447
0.9650168418884277,84.19990530122651,0.030112531039594916
0.9650168418884277,-3.0624484628311137,0.04403110143890882
0.9650168418884277,-48.01186023576503,0.06216424955886431
0.9650168418884277,165.77970840314424,0.08521970742376433
0.9650168418884277,283.28437263715966,0.11393973584795898
0.9650168418884277,40.685614195016484,0.14910156625291882
0.9650168418884277,-207.64167360032147,0.1915186821989004
0.9650168418884277,-624.4703422062082,0.24204006282412294
0.9650168418884277,-721.9797384863084,0.3015467785816713
0.9650168418884277,-490.86302169367104,0.3709470283543467
0.9650168418884277,-366.5822547011782,0.45117088961247426
0.9650168418884277,-130.90935019896978,0.5431656072001514
0.9650168418884277,46.34911107739083,0.6478915437515742
0.9650168418884277,274.8807057659145,0.7663184717932061
0.9650168418884277,325.1760256228608,0.8994219095223587
0.9650168418884277,345.5915465470867,1.0481793963365478
0.9650168418884277,297.10891735906927,1.2135667015305516
0.9650168418884277,274.91191625996703,1.3965539665887743
0.9650168418884277,292.7533838009517,1.5981018187074747
0.9650168418884277,197.06823119746656,1.8191575442632721
0.9650168418884277,170.46451266907926,2.0606514265612375
0.9650168418884277,78.82977906420435,2.323493316042078
0.9650168418884277,2.0941852596138375,2.6085694462421642
0.9650168418884277,198.25757348539736,2.916739487299821
0.9650168418884277,310.1675974772233,3.2488338289401377
0.9650168418884277,46.018922038755875,3.6056510850091543
0.9650168418884277,-194.1486701288285,3.987955811766581
0.9650168418884277,-638.703795472179,4.396476432284247
0.9650168418884277,-727.3193764699087,4.831903359435179
0.9650168418884277,-507.9735404673816,5.294887310095566
0.9650168418884277,-382.3611848426331,5.7860378033188935
0.9650168418884277,-159.0725213971598,6.305921835378124
0.9650168418884277,18.134523482937226,6.8550627247080245
0.9650168418884277,250.25051049955533,7.4339391199154825
0.9650168418884277,297.147815982279,8.042984164160965
0.9650168418884277,324.0622560122798,8.682584809349068
0.9650168418884277,286.24926418761345,9.35308127370038
0.9650168418884277,257.23997435590707,10.054766636410609
0.9650168418884277,242.3276789405359,10.787886563236105
0.9650168418884277,171.56555622695478,11.552639156977405
0.9650168418884277,142.15487267662274,12.349174926964347
1.037431001663208,77.44189855180902,6.040411653708342e-06
1.037431001663208,97.78615336726764,5.3925646715253415e-05
1.037431001663208,243.2152211783873,0.0002437810973391378
1.037431001663208,369.65885940837074,0.0007620471241506968
1.037431001663208,108.79271533236573,0.0018867241071463306
1.037431001663208,-126.66787323472894,0.003987122467942578
1.037431001663208,-574.2924544475812,0.007521423482366851
1.037431001663208,-705.4724104656485,0.013031279275802282
1.037431001663208,-445.9051197443686,0.021134637316593645
1.037431001663208,-343.8672569904223,0.03251818607224419
1.037431001663208,-118.68515703505068,0.047930335459701844
1.037431001663208,61.87991130965614,0.06817489846228238
1.037431001663208,278.29285820477827,0.0941051458376118
1.037431001663208,337.46936603545487,0.12661796964456698
1.037431001663208,342.63932541341694,0.16664814206754414
1.037431001663208,289.5708508479526,0.21516265931272893
1.037431001663208,263.42594576488284,0.2731550715193796
1.037431001663208,297.47712377594195,0.34163979447762177
1.037431001663208,188.2826725475688,0.4216465404111666
1.037431001663208,168.87725115830457,0.5142151257034945
1.037431001663208,74.27436393162822,0.6203908512910633
1.037431001663208,-11.479178421902972,0.7412202766125554
1.037431001663208,184.91102063943916,0.8777474784911858
1.037431001663208,280.80981235431267,1.0310120048759397
1.037431001663208,31.443913907278045,1.2020492641791471
1.037431001663208,-202.6815772448728,1.3918916913630135
1.037431001663208,-638.7301919229993,1.601568335919213
1.037431001663208,-756.3675738422573,1.8321022926369495
1.037431001663208,-532.1446950907309,2.0845068156875644
1.037431001663208,-400.296601463521,2.3597810645968162
1.037431001663208,-176.6675516859072,2.658906006612776
1.037431001663208,10.777005364880978,2.982840602497024
1.037431001663208,234.53917211014954,3.3325182663858772
1.037431001663208,290.7685828258884,3.708843590525525
1.037431001663208,312.33215988368664,4.1126893258418145
1.037431001663208,257.20651365477374,4.5448936094619885
1.037431001663208,248.15395897615826,5.006257430461886
1.037431001663208,272.163911927748,5.497542325268004
1.037431001663208,175.97968955394776,6.019468294299274
1.037431001663208,152.42537662498574,6.572711931588501
1.037431001663208,66.33812715284333,7.157904759278019
1.037431001663208,-9.844264432279786,7.775631759038296
1.037431001663208,184.34160571482806,8.42643009261189
1.037431001663208,290.02077988621136,9.110788003838294
1.037431001663208,37.487835821538596,9.829143894667787
1.037431001663208,-200.04473965906072,10.581885567824402
1.037431001663208,-640.6357916816479,11.369349628929541
1.037431001663208,-732.7031582633845,12.191821041048449
1.037431001663208,-507.92842143050336,13.049532824771815
1.037431001663208,-378.9265524861702,13.942665897094129
1.110177755355835,-234.7104179904763,5.974459858778567e-06
1.110177755355835,-256.6161110511732,5.3415108127656245e-05
1.110177755355835,105.8626431916207,0.0002413777540492815
1.110177755355835,127.62563345442862,0.0007523571145394854
1.110177755355835,166.17070873593337,0.0018526595089599647
1.110177755355835,78.13886475668356,0.0038862467578491293
1.110177755355835,92.28247893061996,0.007268369898764681
1.110177755355835,287.3586517451819,0.012479054340744112
1.110177755355835,105.60971915181801,0.020056610383329038
1.110177755355835,123.47144854648533,0.030591534899972423
1.110177755355835,34.299560647425224,0.044721102023674575
1.110177755355835,-60.00498744283672,0.06312437412030895
1.110177755355835,173.63867853565816,0.0865176693654711
1.110177755355835,251.4249615382766,0.11565201126945458
1.110177755355835,43.22313595275892,0.15131348619031204
1.110177755355835,-229.29056828889608,0.19432439236132248
1.110177755355835,-646.8692614397114,0.24554233071415368
1.110177755355835,-737.3790367300705,0.3058566819894713
1.110177755355835,-483.62289695149093,0.3761835813466881
1.110177755355835,-365.74654305916516,0.4574606533525152
1.110177755355835,-126.14970157874046,0.5506423019254025
1.110177755355835,69.54409208669253,0.6566956436040096
1.110177755355835,268.08103165115034,0.7765967574936918
1.110177755355835,327.68386704888974,0.9113269703486484
1.110177755355835,327.75380394843495,1.061869087242164
1.110177755355835,309.5150597132132,1.229203566185749
1.110177755355835,270.5938382279337,1.4143046415380174
1.110177755355835,265.1665590303236,1.6181364378807792
1.110177755355835,190.07251725333543,1.8416491583403591
1.110177755355835,161.9506072824556,2.085775442480225
1.110177755355835,82.44042727938017,2.3514269572120776
1.110177755355835,-0.2662391849677306,2.639491233247919
1.110177755355835,197.4374633414397,2.9508287388764023
1.110177755355835,310.57194198813727,3.286270182986053
1.110177755355835,45.58271852497066,3.6466140393969124
1.110177755355835,-191.64592102034663,4.032624284700912
1.110177755355835,-643.4414960338796,4.4450283419497065
1.110177755355835,-725.7524056202353,4.884515222666796
1.110177755355835,-499.4917851961216,5.351733859798554
1.110177755355835,-378.0667749946576,5.847291624356171
1.110177755355835,-144.24173580325458,6.3717530186375155
1.110177755355835,37.04686475945823,6.92563853905455
1.110177755355835,255.28229624967912,7.509423701728022
1.110177755355835,295.953019817749,8.123538224146898
1.110177755355835,320.1862081188106,8.768365356325111
1.110177755355835,279.6983033163385,9.444241355022912
1.110177755355835,251.8699266336328,10.151455094734173
1.110177755355835,236.50510708908246,10.890247809274499
1.110177755355835,163.1030572462424,11.660812957937932
1.110177755355835,139.85439727591253,12.463296210322262
1.1848218441009521,74.95641330119436,5.996321610855869e-06
1.1848218441009521,96.3119705223703,5.3526472891379594e-05
1.1848218441009521,244.8099526089511,0.0002419409602339971
1.1848218441009521,368.92213008083354,0.0007561531397699821
1.1848218441009521,109.2654415632727,0.0018717484804411466
1.1848218441009521,-132.84590989881815,0.003954720526029422
1.1848218441009521,-563.5564609896496,0.007459131821420559
1.1848218441009521,-690.7657320533954,0.012921840519879184
1.1848218441009521,-459.465352257275,0.020955418906668428
1.1848218441009521,-341.9059323227045,0.03224067622134569
1.1848218441009521,-117.18083244732009,0.047519707701392876
1.1848218441009521,62.99799541347156,0.06758964788967749
1.1848218441009521,281.3432108094341,0.09329683570547304
1.1848218441009521,331.35007555298785,0.12553109472736432
1.1848218441009521,340.1718373134994,0.16522000985021634
1.1848218441009521,308.27367629974447,0.21332318865760833
1.1848218441009521,271.0732020510477,0.2708265261245062
1.1848218441009521,259.93298800035785,0.33873652047918085
1.1848218441009521,175.78195033315555,0.4180747438169127
1.1848218441009521,153.75115735698265,0.5098727081326296
1.1848218441009521,69.54225569095058,0.6151673263574361
1.1848218441009521,-2.2004958598160442,0.734996763087209
1.1848218441009521,190.93839282732256,0.8703966913880686
1.1848218441009521,293.4704077055759,1.0223981272351013
1.1848218441009521,33.34164678964842,1.1920277115649707
1.1848218441009521,-191.16183383516852,1.3803089533866928
1.1848218441009521,-626.9743627346094,1.5882620278546724
1.1848218441009521,-744.9121326035756,1.8169013706057124
1.1848218441009521,-541.3115429739522,2.0672318590893024
1.1848218441009521,-398.9415218979011,2.3402445838285018
1.1848218441009521,-178.43726309816014,2.6369127688481577
1.1848218441009521,8.215313882404132,2.9581879738393044
1.1848218441009521,239.40244981802763,3.304996568767742
1.1848218441009521,284.1689453019671,3.678236471790847
1.1848218441009521,315.1363545953339,4.078774141502427
1.1848218441009521,277.8159612599157,4.5074418146808926
1.1848218441009521,253.39355665469554,4.9650349808711605
1.1848218441009521,229.57071317472634,5.4523100852854665
1.1848218441009521,165.8528130101222,5.96998245166266
1.1848218441009521,146.445897186576,6.51872441687956
1.1848218441009521,60.151944708140604,7.099163669261468
1.1848218441009521,-3.7105409925426045,7.711881782692058
1.1848218441009521,187.4285743184647,8.357412938775433
1.1848218441009521,299.2253547202547,9.036242829455233
1.1848218441009521,37.55347049783626,9.748807732647178
1.1848218441009521,-175.26591290806476,10.495493753592395
1.1848218441009521,-613.2239792551883,11.276636224789193
1.1848218441009521,-735.4184738973099,12.092519257510627
1.1848218441009521,-528.6878165653932,12.943375438064207
1.1848218441009521,-385.0373593496117,13.829385662098414
1.2589702606201172,-240.3979247801711,5.887977421779172e-06
1.2589702606201172,-263.43396445457256,5.2629696769925476e-05
1.2589702606201172,106.20647163665082,0.00023778157635384866
1.2589702606201172,127.03959421319969,0.0007410507199374003
1.2589702606201172,169.02483275633278,0.0018247225839005505
1.2589702606201172,172.81829863163068,0.0038277168036546464
1.2589702606201172,130.32517915565796,0.0071594125850755405
1.2589702606201172,175.713410474959,0.012293276408750126
1.2589702606201172,78.47914155112073,0.019760482852319083
1.2589702606201172,95.18406366123361,0.03014392015186089
1.2589702606201172,16.960030578170745,0.04407288965471319
1.2589702606201172,-39.97336942544686,0.062218206893906475
1.2589702606201172,171.94919156335544,0.08528766652849014
1.2589702606201172,272.9322443782619,0.11402331992376988
1.2589702606201172,38.84343224856261,0.14920163388019214
1.2589702606201172,-199.1747749776184,0.1916347074474498
1.2589702606201172,-594.9859116364925,0.24216968156966034
1.2589702606201172,-721.4570937336471,0.3016855051219338
1.2589702606201172,-526.374116995046,0.3710880493344383
1.2589702606201172,-373.7421376900852,0.4513048837706726
1.2589702606201172,-149.1333979820518,0.5432805645421795
1.2589702606201172,38.40316245180804,0.6479725639015428
1.2589702606201172,271.04464140631984,0.7663475271770267
1.2589702606201172,315.5666501432819,0.8993775752406604
1.2589702606201172,343.7306266413886,1.0480365752269971
1.2589702606201172,290.5997250457077,1.2132963714624134
1.2589702606201172,275.29532917337633,1.39612295443374
1.2589702606201172,281.1148827792797,1.5974726007971325
1.2589702606201172,192.69997502921103,1.8182880770783405
1.2589702606201172,173.44739446697866,2.059495008558144
1.2589702606201172,83.17645594398778,2.321998479115766
1.2589702606201172,15.080100337646172,2.60667987525061
1.2589702606201172,206.64405898274987,2.9143939661208695
1.2589702606201172,311.4365847574783,3.2459662115757344
1.2589702606201172,51.55997186786158,3.602190290295856
1.2589702606201172,-178.22417504007828,3.983825840294394
1.2589702606201172,-607.2266708801994,4.391596404168334
1.2589702606201172,-721.8271214520755,4.826187571626817
1.2589702606201172,-531.457623821694,5.288245311959935
1.2589702606201172,-384.0480761245166,5.7783744892478115
1.2589702606201172,-165.30873681464487,6.297137553245725
1.2589702606201172,17.921652531863202,6.845053399016601
1.2589702606201172,247.53517221568978,7.4225963885173
1.2589702606201172,289.80450804878086,8.030195527479782
1.2589702606201172,320.99158452489473,8.668233791062372
1.2589702606201172,271.43214366199345,9.33704759187998
1.2589702606201172,253.80535070042754,10.036926384155224
1.2589702606201172,244.8362800804854,10.768112397864883
1.2589702606201172,165.09556614477032,11.530800496888045
1.2589702606201172,141.43136206018355,12.325138155293548
1.331310510635376,74.77727922907799,5.994193165680907e-06
1.331310510635376,100.52269286608308,5.350892265996654e-05
1.331310510635376,245.8169228246674,0.0002418655820465765
1.331310510635376,364.87340626176024,0.0007559374517171452
1.331310510635376,111.67248823160782,0.0018713143263276945
1.331310510635376,-135.3537785860759,0.003954134363011606
1.331310510635376,-557.6366285339319,0.007458819011858991
1.331310510635376,-685.0032627160471,0.01292282406552893
1.331310510635376,-468.27308158397494,0.02095955245540666
1.331310510635376,-341.3846108236978,0.03225085002306358
1.331310510635376,-123.98579898559842,0.04754001292621084
1.331310510635376,58.72964933632028,0.06762546483906837
1.331310510635376,281.1218354190036,0.09335474680102389
1.331310510635376,328.1386439326279,0.12561858745744525
1.331310510635376,343.67857634007896,0.1653451531997033
1.331310510635376,258.89222083488556,0.21349448866868656
1.331310510635376,256.4863407028329,0.27105295263639834
1.331310510635376,320.5431930012064,0.33902760363944795
1.331310510635376,181.70441220981226,0.41844069762434954
1.331310510635376,169.3155763844448,0.5103245677550783
1.331310510635376,85.28622628538044,0.6157170708163328
1.331310510635376,-4.118147696601369,0.735657395895126
1.331310510635376,195.86196333607757,0.8711822819205045
1.331310510635376,281.40738683572727,1.023323846377561
1.331310510635376,38.93823966156626,1.1931099195640213
1.331310510635376,-193.76019606855905,1.381565372426562
1.331310510635376,-625.3322122520675,1.5897119585685033
1.331310510635376,-753.740096941938,1.8185658983483495
1.331310510635376,-544.2510188907258,2.069134035784622
1.331310510635376,-400.68760579017874,2.342409587427005
1.331310510635376,-183.33918074544522,2.6393680412403517
1.331310510635376,10.972583961238229,2.960963338282492
1.331310510635376,231.76655839980583,3.3081243278547063
1.331310510635376,286.5889417782646,3.681751486960206
1.331310510635376,307.88753192299566,4.082713895062119
1.331310510635376,218.73442474570845,4.5118464552883655
1.331310510635376,230.11802455194336,4.96994735338636
1.331310510635376,298.0993060619903,5.457775745885631
1.331310510635376,168.9595810613996,5.9760496690813
1.331310510635376,157.63418421072492,6.525444160605701
1.331310510635376,80.1159666691363,7.106589585509445
1.331310510635376,-6.482516564265495,7.720070158926692
1.331310510635376,200.21713664392738,8.366422657552402
1.331310510635376,285.0901200594077,9.046135312311826
1.331310510635376,48.109247789870835,9.759646874754436
1.331310510635376,-173.04626721813239,10.507345849855824
1.331310510635376,-612.2266620930641,11.289569888061829
1.331310510635376,-749.3153249157308,12.106605329559272
1.331310510635376,-527.7988353956268,12.958686893907052
1.331310510635376,-385.87006619217385,13.845997508310052
1.4053940773010254,-239.6030173351547,6.0578197832194435e-06
1.4053940773010254,-262.24635872938785,5.415662914800934e-05
1.4053940773010254,106.02753280190012,0.00024471066955155063
1.4053940773010254,128.19388869244787,0.000762688227514053
1.4053940773010254,170.18950729864895,0.001877957414719278
1.4053940773010254,14.78522812075164,0.0039390161180042765
1.4053940773010254,70.68347153458976,0.00736651880369139
1.4053940773010254,368.170669667888,0.012646670788225628
1.4053940773010254,105.33691703261769,0.020324667030289647
1.4053940773010254,145.83469869575936,0.030998538495170147
1.4053940773010254,53.92432452929077,0.04531369556931492
1.4053940773010254,-54.32604461384159,0.0639578735769077
1.4053940773010254,200.53195614662675,0.08765638369417769
1.4053940773010254,232.29157485896758,0.11716901174395455
1.4053940773010254,57.35892051579401,0.15328971526152013
1.4053940773010254,-210.26157071051608,0.19684755464984127
1.4053940773010254,-583.9615758466091,0.2487060491602358
1.4053940773010254,-747.3589298062244,0.3097599569360664
1.4053940773010254,-546.2413610121624,0.38093038335755447
1.4053940773010254,-381.0699475038953,0.46315953851375996
1.4053940773010254,-178.15677116758496,0.5574059986014296
1.4053940773010254,35.67181736667027,0.6646405335949777
1.4053940773010254,245.09842403729556,0.7858420187954647
1.4053940773010254,317.16649567545346,0.9219933820283918
1.4053940773010254,328.4450585517048,1.0740782812691685
1.4053940773010254,309.45412285882253,1.2430785012066174
1.4053940773010254,272.4184295406037,1.4299710526762863
1.4053940773010254,265.0086434580006,1.6357245849068227
1.4053940773010254,188.36194130747802,1.8612955302860577
1.4053940773010254,161.71282351696073,2.1076243224880318
1.4053940773010254,89.93683910026508,2.375631825985734
1.4053940773010254,11.387507414116754,2.666216018489743
1.4053940773010254,207.105768170188,2.9802489179005036
1.4053940773010254,312.47929107750804,3.3185737455039037
1.4053940773010254,62.14589903227733,3.682002317281527
1.4053940773010254,-159.82994898271255,4.071312655348345
1.4053940773010254,-578.01286599625,4.487246811671732
1.4053940773010254,-718.3235494570893,4.930508896366483
1.4053940773010254,-546.3739768330181,5.401763303000945
1.4053940773010254,-382.9900863640723,5.901633123489461
1.4053940773010254,-172.91642690436134,6.430698745285982
1.4053940773010254,18.66789025079396,6.989496623732988
1.4053940773010254,248.58344196136494,7.5785182225586425
1.4053940773010254,288.0258075962662,8.198209115653448
1.4053940773010254,323.64987641909084,8.848968243395502
1.4053940773010254,34.16692274301917,9.531147316930754
1.4053940773010254,164.50424649657072,10.245050363951394
1.4053940773010254,527.7843649361188,10.990933409651648
1.4053940773010254,200.61349048727385,11.76900428667583
1.4053940773010254,218.53442685676467,12.579422568008338
1.4772312641143799,81.98742563176197,5.9817553387640615e-06
1.4772312641143799,109.61539667265288,5.339915808544851e-05
1.4772312641143799,233.3273582860387,0.0002413475553882361
1.4772312641143799,354.6568997978769,0.0007541659317976489
1.4772312641143799,116.68076548577491,0.0018664245616875172
1.4772312641143799,-136.55797978242697,0.00394269170193365
1.4772312641143799,-536.6579995979424,0.00743534716017137
1.4772312641143799,-677.7048734059715,0.012879437985129022
1.4772312641143799,-488.7018052923698,0.020885654662226326
1.4772312641143799,-342.22663314933965,0.03213285258311074
1.4772312641143799,-129.44093915228308,0.04736106034684185
1.4772312641143799,56.96288059192884,0.06736518284367732
1.4772312641143799,277.8761105641788,0.09298910801237271
1.4772312641143799,324.21265777279393,0.12511993440193878
1.4772312641143799,344.9227809886503,0.16468224610690463
1.4772312641143799,195.54586626304823,0.2126324223597052
1.4772312641143799,232.84369115539965,0.2699529513365725
1.4772312641143799,385.2043893869622,0.33764677651156977
1.4772312641143799,193.3611031448615,0.41673178624313345
1.4772312641143799,188.2058152733527,0.5082356722760177
1.4772312641143799,96.49921323007887,0.6131913504256113
1.4772312641143799,-10.535452401325244,0.7326327782251963
1.4772312641143799,198.22720925599117,0.867591183865654
1.4772312641143799,269.64442041567617,1.0190927928648572
1.4772312641143799,61.244659886898376,1.188158949218754
1.4772312641143799,-195.65654402875248,1.3758073180046144
1.4772312641143799,-607.0007056747444,1.5830517908626711
1.4772312641143799,-745.6243201249858,1.8109001939153642
1.4772312641143799,-556.9984900498318,2.0603505319677127
1.4772312641143799,-396.37000552726164,2.3323868077207988
1.4772312641143799,-193.23171834153823,2.6279749901281386
1.4772312641143799,9.808628628470245,2.9480592618995956
1.4772312641143799,220.87731875945602,3.2935585369362164
1.4772312641143799,284.2658700358654,3.6653632386342925
1.4772312641143799,305.72316724212385,4.064332330151596
1.4772312641143799,262.9655586800559,4.491290587883072
1.4772312641143799,246.59860912517772,4.94702610954728
1.4772312641143799,241.4888860747528,5.432288048438536
1.4772312641143799,166.06604401095387,5.947784565552978
1.4772312641143799,142.76440663981174,6.494180991449644
1.4772312641143799,64.36323451086203,7.072098189860089
1.4772312641143799,-10.728104275517822,7.68211111521205
1.4772312641143799,168.6887501469423,8.324747556384144
1.4772312641143799,285.7691224838915,9.000487059159553
1.4772312641143799,64.4688985829045,9.709760019997047
1.4772312641143799,-167.23688377893657,10.452946943887579
1.4772312641143799,-584.6170015519431,11.230377859213846
1.4772312641143799,-726.383060792313,12.04233188267886
1.4772312641143799,-545.7753045857439,12.889036927517424
1.4772312641143799,-380.0879520355043,13.770669548351643
1.5479862689971924,-243.28646169304764,6.227927607708305e-06
1.5479862689971924,-267.74948948411674,5.561204860307402e-05
1.5479862689971924,104.82251915386011,0.0002509722831757285
1.5479862689971924,129.82711415072004,0.0007813119951400085
1.5479862689971924,175.84094762116646,0.001922120122571537
1.5479862689971924,-69.76121410611441,0.00402930413612238
1.5479862689971924,34.72075998538483,0.0075329228569477715
1.5479862689971924,470.9785639540024,0.012930576929792487
1.5479862689971924,117.07898213735885,0.020780730360093272
1.5479862689971924,177.70360828555866,0.03169636873124609
1.5479862689971924,79.72270039172759,0.04633926429172961
1.5479862689971924,-62.11642898653416,0.06541461640261467
1.5479862689971924,202.24219142502272,0.08966605408145004
1.5479862689971924,209.89738042008076,0.11987230180512011
1.5479862689971924,84.09131904461495,0.1568466402988131
1.5479862689971924,-205.81327396802925,0.20143768261223535
1.5479862689971924,-570.4357872085193,0.2545286529660109
1.5479862689971924,-767.5954547812846,0.3170341053467475
1.5479862689971924,-550.7099517306684,0.3898949663323648
1.5479862689971924,-383.8989895986711,0.4740731998139966
1.5479862689971924,-198.64191796868784,0.5705469514884475
1.5479862689971924,33.42904124366896,0.6803063515798419
1.5479862689971924,226.16773070366528,0.8043496940687028
1.5479862689971924,323.8388441523816,0.9436796973496803
1.5479862689971924,318.19117217142843,1.0992997310324097
1.5479862689971924,229.72872457531946,1.272209985017772
1.5479862689971924,239.08914971537857,1.463403575249255
1.5479862689971924,362.5190113998971,1.6738626284362002
1.5479862689971924,201.37430813470831,1.9045544365679252
1.5479862689971924,187.62451978694904,2.1564277829658973
1.5479862689971924,111.2438343569337,2.4304095051928702
1.5479862689971924,-1.595520887460097,2.7274013071091625
1.5479862689971924,210.69624763365692,3.048276811716542
1.5479862689971924,282.4581081423383,3.3938788465721776
1.5479862689971924,85.13888806018315,3.7650169536968727
1.5479862689971924,-165.9263254388521,4.1624651160432515
1.5479862689971924,-565.445334528257,4.586959692730729
1.5479862689971924,-729.3271742439072,5.039197555394909
1.5479862689971924,-554.7953127308016,5.5198344181395536
1.5479862689971924,-382.244392922105,6.029483353719337
1.5479862689971924,-192.90780564645326,6.568713488721309
1.5479862689971924,14.698166026191558,7.138048870652229
1.5479862689971924,233.79175391529023,7.737967499977786
1.5479862689971924,294.9373235813167,8.368900520297972
1.5479862689971924,320.5101816921816,9.03123155998074
1.5479862689971924,286.63874203264146,9.725296218713323
1.5479862689971924,261.4283706114394,10.45138169256731
1.5479862689971924,243.01550406726778,11.209726531309597
1.5479862689971924,170.96702155342933,12.000520521826926
1.5479862689971924,140.95095871820985,12.823904691666408
1.6192255020141602,82.03220914979109,6.259065460211092e-06
1.6192255020141602,104.64415825917911,5.5886113997790144e-05
1.6192255020141602,205.10935928532064,0.0002525603990865534
1.6192255020141602,349.30560720810433,0.0007888631004757223
1.6192255020141602,146.60388525402902,0.001950987785798022
1.6192255020141602,-115.87032689326995,0.004118119510322974
1.6192255020141602,-503.81427565888885,0.007760095051341359
1.6192255020141602,-678.5473507703147,0.013432138429582937
1.6192255020141602,-503.0366172764548,0.02176765105223723
1.6192255020141602,-341.9004767329802,0.03347046265042195
1.6192255020141602,-146.28576430505444,0.04930749955978399
1.6192255020141602,48.08645966312085,0.07010214855805147
1.6192255020141602,266.0774945699404,0.09672807774222253
1.6192255020141602,321.442432136394,0.1301032325944153
1.6192255020141602,346.25006965499256,0.17118389377358256
1.6192255020141602,-3.9474216198183285,0.2209587631398729
1.6192255020141602,162.7105045214328,0.2804430673189729
1.6192255020141602,642.1816865601838,0.35067271744833045
1.6192255020141602,230.19886581889577,0.4326986301979846
1.6192255020141602,246.72778980259557,0.52758142227569
1.6192255020141602,144.48356707411017,0.636386664462204
1.6192255020141602,-35.00351293206096,0.7601805481545063
1.6192255020141602,220.6306053762214,0.9000259623802317
1.6192255020141602,207.9677483114943,1.0569799837162683
1.6192255020141602,88.8986779804217,1.2320936573358288
1.6192255020141602,-224.40112459571301,1.4264128728286953
1.6192255020141602,-584.993117165895,1.6409780568209187
1.6192255020141602,-758.4270092056781,1.8768217771077476
1.6192255020141602,-590.7326378140498,2.13496495243415
1.6192255020141602,-397.84652824237725,2.416412673194043
1.6192255020141602,-232.89133819433192,2.7221501822999055
1.6192255020141602,4.067335200695652,3.0531391378396
1.6192255020141602,195.85733462254353,3.4103141481691743
1.6192255020141602,289.0509245066918,3.7945795702482497
1.6192255020141602,292.88047780873023,4.206806562182141
1.6192255020141602,278.58337418254155,4.64783038109209
1.6192255020141602,247.93218838280708,5.1184479175918725
1.6192255020141602,234.17814243083347,5.619415458305574
1.6192255020141602,169.33264871866479,6.151446668017463
1.6192255020141602,135.23809230944502,6.715210783200578
1.6192255020141602,64.39194008657299,7.311331008825946
1.6192255020141602,-15.353311651254955,7.940383110509091
1.6192255020141602,161.4594616171495,8.602894194204838
1.6192255020141602,282.42950627827565,9.299341665815087
1.6192255020141602,88.5487597293797,10.030152363227485
1.6192255020141602,-158.10497026844334,10.795701853455439
1.6192255020141602,-570.1084685189404,11.596313887701925
1.6192255020141602,-718.4800999349056,12.432260007320792
1.6192255020141602,-544.259560291805,13.303759293799898
1.6192255020141602,-372.2549911609262,14.21097825604023
1.6933810710906982,-245.40248291992225,5.8325691884807085e-06
1.6933810710906982,-271.47065644623956,5.2152023717688496e-05
1.6933810710906982,103.53214541323673,0.000235708897198872
1.6933810710906982,131.24607927883764,0.0007348415442957007
1.6933810710906982,174.36478330319568,0.0018099441826319612
1.6933810710906982,165.51115579203446,0.0037975201941239396
1.6933810710906982,130.77033386224247,0.0071039908516966855
1.6933810710906982,193.86107358357512,0.01219934097697878
1.6933810710906982,90.11065905040017,0.0196107531573044
1.6933810710906982,104.90846727654986,0.029916545891468346
1.6933810710906982,14.446605469725085,0.04374072779127389
1.6933810710906982,-49.91344833590132,0.061747998021857715
1.6933810710906982,117.94089475587148,0.08463913414028355
1.6933810710906982,244.55353875188106,0.11314805542356543
1.6933810710906982,94.54431500101568,0.1480417909597699
1.6933810710906982,-167.8005521030702,0.1901218358763463
1.6933810710906982,-561.2025242997922,0.24022391134808257
1.6933810710906982,-731.3680811803741,0.29921500909851717
1.6933810710906982,-535.0410196989848,0.36798867082388975
1.6933810710906982,-367.87177682040726,0.44745985980517033
1.6933810710906982,-172.53865748610832,0.5385603087564276
1.6933810710906982,38.51107514881022,0.6422345179425067
1.6933810710906982,253.3193864562188,0.759436097672196
1.6933810710906982,318.6472275577921,0.89112415971191
1.6933810710906982,340.61475993761354,1.0382596677900962
1.6933810710906982,308.45696353522214,1.2018017324531869
1.6933810710906982,283.3924878805244,1.3827038359378134
1.6933810710906982,259.874057944327,1.5819100229734866
1.6933810710906982,191.99588829535193,1.8003511456590375
1.6933810710906982,166.4241170236604,2.0389412661237176
1.6933810710906982,80.88947670488102,2.298574286722668
1.6933810710906982,-0.022174431418108043,2.5801208218951333
1.6933810710906982,155.75684036290585,2.8844253036118643
1.6933810710906982,287.66745755331374,3.2123033124748277
1.6933810710906982,104.13516768737531,3.5645391266687274
1.6933810710906982,-133.76285054355606,3.941883481099995
1.6933810710906982,-557.9262681001895,4.345051529194747
1.6933810710906982,-730.4164381833432,4.774720999962753
1.6933810710906982,-551.0033457547913,5.231530543069644
1.6933810710906982,-378.7812154879914,5.716078254794451
1.6933810710906982,-192.16340583583298,6.228920377884014
1.6933810710906982,16.368206257004033,6.770570168449854
1.6933810710906982,233.22123056779253,7.34149692318671
1.6933810710906982,294.831719648831,7.942125160325112
1.6933810710906982,318.2679368648896,8.57283394786302
1.6933810710906982,274.0516732372935,9.23395637275371
1.6933810710906982,259.2646504521239,9.925779144858728
1.6933810710906982,240.0391800885103,10.648542329605704
1.6933810710906982,170.14141553138847,11.40243920342135
1.6933810710906982,143.29392786833387,12.187616226139712
1.7642428874969482,74.60934103646889,5.856984212179167e-06
1.7642428874969482,99.15220229735898,5.227509858644894e-05
1.7642428874969482,185.84520291321755,0.0002361615957789529
1.7642428874969482,338.8689956050208,0.0007374982480618775
1.7642428874969482,175.32893377576136,0.0018239698018198012
1.7642428874969482,-91.71882099105574,0.0038508611140846516
1.7642428874969482,-469.9812659073068,0.007259330483418824
1.7642428874969482,-680.0516008863931,0.012571697290282612
1.7642428874969482,-519.8642387556743,0.02038469787336436
1.7642428874969482,-340.3438604506411,0.03136219423588116
1.7642428874969482,-161.65308428084893,0.046228323328970186
1.7642428874969482,47.698446939305484,0.06576130485439335
1.7642428874969482,260.41069312294275,0.09078755455251124
1.7642428874969482,319.7046897444049,0.12217586655290072
1.7642428874969482,341.2448933023452,0.1608318217109227
1.7642428874969482,192.99527131624706,0.20769244666384243
1.7642428874969482,232.38350779910385,0.2637208629636623
1.7642428874969482,386.0365507538788,0.32990083913732615
1.7642428874969482,199.59831522174267,0.4072313969381748
1.7642428874969482,185.0414980659883,0.4967217010784325
1.7642428874969482,101.87725969532852,0.5993864319535926
1.7642428874969482,-18.3199589910364,0.7162415674731117
1.7642428874969482,153.02990171613624,0.8483006284290185
1.7642428874969482,244.05396535258848,0.9965723678518601
1.7642428874969482,108.7080534973552,1.1620607937211116
1.7642428874969482,-172.135454475223,1.345766381056273
1.7642428874969482,-554.5672413030456,1.5486861157637333
1.7642428874969482,-734.3024313925703,1.7718113211672724
1.7642428874969482,-588.5984214239099,2.016123959438734
1.7642428874969482,-388.3635449455286,2.2825924969271303
1.7642428874969482,-220.83356486615122,2.572167920524414
1.7642428874969482,4.832686592837803,2.8857800291906646
1.7642428874969482,213.1640982751739,3.22433399156317
1.7642428874969482,283.82437643679305,3.588707160726303
1.7642428874969482,306.5697478120174,3.9797461373712313
1.7642428874969482,196.6913832442233,4.398264072726341
1.7642428874969482,223.9988896168897,4.845038202790759
1.7642428874969482,313.5863714459586,5.320807605554553
1.7642428874969482,179.69430855334176,5.826271173039955
1.7642428874969482,164.28107431984193,6.362085790148393
1.7642428874969482,89.4823314852237,6.9288647124480525
1.7642428874969482,-20.791456254870667,7.527176135186237
1.7642428874969482,140.98341146003895,8.157541945959842
1.7642428874969482,253.55028168483722,8.820436653625759
1.7642428874969482,116.47912509198903,9.516286486181057
1.7642428874969482,-164.57518994640978,10.24546865049021
1.7642428874969482,-554.8029436977793,11.008310746883433
1.7642428874969482,-714.5664913294418,11.805090331796425
1.7642428874969482,-563.9451304747075,12.636034621767324
1.7642428874969482,-368.7773596773557,13.501320332251565
1.8365623950958252,-243.53277104220766,5.793659250031415e-06
1.8365623950958252,-268.1174799905121,5.1698364609387e-05
1.8365623950958252,105.82409565256638,0.0002331515090309204
1.8365623950958252,130.84355920393708,0.0007255119461124203
1.8365623950958252,174.40797173119034,0.0017847418264296205
1.8365623950958252,176.22827522094036,0.0037425640068637985
1.8365623950958252,133.37479893742056,0.007001250598238645
1.8365623950958252,179.36136890751288,0.012027689440501706
1.8365623950958252,79.31492508786293,0.01934714841300302
1.8365623950958252,103.88412688243668,0.029537194167165732
1.8365623950958252,21.021936129366722,0.04322207635952792
1.8365623950958252,-51.504246432795455,0.061067516417514664
1.8365623950958252,99.94269385444338,0.08377596051558782
1.8365623950958252,235.57466613575397,0.11208349341202761
1.8365623950958252,107.35730398313531,0.14675960644429234
1.8365623950958252,-169.4472266021223,0.1886085242111079
1.8365623950958252,-554.3236816653346,0.23846914403860045
1.8365623950958252,-719.6941985643552,0.29721224827088455
1.8365623950958252,-541.2759059915718,0.3657358315239876
1.8365623950958252,-361.9739073315551,0.4449599113807452
1.8365623950958252,-175.75983764905493,0.5358217407563519
1.8365623950958252,36.14419106652039,0.639271659990448
1.8365623950958252,253.46143961241347,0.7562693220448986
1.8365623950958252,322.24540758818927,0.8877800028042608
1.8365623950958252,344.31765694207945,1.034770902865776
1.8365623950958252,145.30806290526903,1.198207409704581
1.8365623950958252,220.92911000081793,1.3790492906236993
1.8365623950958252,452.0597483474362,1.5782468499448088
1.8365623950958252,218.11278947040836,1.7967371451056402
1.8365623950958252,213.8831485038643,2.035440367500992
1.8365623950958252,130.57790975288773,2.2952564540646367
1.8365623950958252,-7.303335791131246,2.577061941754518
1.8365623950958252,166.81675026922204,2.881707056828517
1.8365623950958252,241.53404862253683,3.2100130309353245
1.8365623950958252,134.46022186305095,3.562769636181985
1.8365623950958252,-159.0869474333722,3.940732931476418
1.8365623950958252,-531.7531253494775,4.344623212579675
1.8365623950958252,-728.5583152303968,4.775123158438859
1.8365623950958252,-585.5995792763563,5.232876166507415
1.8365623950958252,-378.2172305371427,5.718484869894968
1.8365623950958252,-224.10875242142356,6.232509829323955
1.8365623950958252,10.300486986124355,6.775468393004947
1.8365623950958252,209.84908703638928,7.347833717676777
1.8365623950958252,291.7144953936697,7.950033944191354
1.8365623950958252,307.7777439886198,8.582451521156319
1.8365623950958252,271.79230233788184,9.245422670281455
1.8365623950958252,258.4950467770459,9.939236987206963
1.8365623950958252,240.78081937047247,10.664137171723368
1.8365623950958252,171.33539257587952,11.420318881423874
1.8365623950958252,137.28406710826977,12.207930702960335
1.9115662574768066,78.23680599682544,5.964894482611669e-06
1.9115662574768066,102.89231691999797,5.323689460569111e-05
1.9115662574768066,170.5195202126482,0.0002404620693800087
1.9115662574768066,332.29449503246855,0.000750688150673981
1.9115662574768066,189.6410954004158,0.0018558645141118764
1.9115662574768066,-83.06798250648467,0.003916626641207546
1.9115662574768066,-460.348393900435,0.007380545874060012
1.9115662574768066,-685.1374096639577,0.012777383434339089
1.9115662574768066,-522.3520806070288,0.020712286779291912
1.9115662574768066,-340.42429653792396,0.03185839445278617
1.9115662574768066,-170.93209621550187,0.04694983862347757
1.9115662574768066,43.454828646393594,0.06677538005299405
1.9115662574768066,255.51720375349618,0.09217227329049985
1.9115662574768066,323.2137620620486,0.12402020612554387
1.9115662574768066,341.08320071351204,0.16323575308646862
1.9115662574768066,97.80041051543816,0.21076737302212487
1.9115662574768066,195.1043140174868,0.2675903399490997
1.9115662574768066,500.34106406608987,0.3347013700456936
1.9115662574768066,216.28180607066724,0.4131131950511122
1.9115662574768066,221.21744360338928,0.5038493461270733
1.9115662574768066,133.14747961637806,0.6079393457095015
1.9115662574768066,-32.16725902195607,0.7264143109937744
1.9115662574768066,143.60142183319977,0.8603030363009431
1.9115662574768066,207.76789868451388,1.0106293791682173
1.9115662574768066,142.1544805054369,1.1784118831478934
1.9115662574768066,-172.61589973643564,1.3646648296865018
1.9115662574768066,-538.2992132148363,1.5703984087171694
1.9115662574768066,-746.2368053025527,1.7966166670633141
1.9115662574768066,-599.9099200384492,2.0443138143493376
1.9115662574768066,-386.1164973096774,2.314470058660951
1.9115662574768066,-242.8135430649778,2.6080475984914373
1.9115662574768066,5.999207331368069,2.9259868923108434
1.9115662574768066,193.8459379737369,3.269203196591056
1.9115662574768066,288.0507637269201,3.6385833632737956
1.9115662574768066,299.21545807660243,4.03498288782238
1.9115662574768066,115.53379271433998,4.459223199151599
1.9115662574768066,186.93128488512968,4.912089182883233
1.9115662574768066,413.79878778792227,5.394326929527571
1.9115662574768066,194.7675458229907,5.906641699343719
1.9115662574768066,191.7645295554339,6.449696095783559
1.9115662574768066,119.5597119348183,7.024108439575806
1.9115662574768066,-36.85728726416285,7.630451335657802
1.9115662574768066,131.56777102948908,8.269250425313315
1.9115662574768066,218.45811862655734,8.940983316024791
1.9115662574768066,155.27158418186335,9.646078681698107
1.9115662574768066,-162.1599012679745,10.3849155260669
1.9115662574768066,-503.7996071752051,11.157822602231974
1.9115662574768066,-708.9587015278249,11.965077981439073
1.9115662574768066,-605.3203291689968,12.806908764345428
1.9115662574768066,-367.07733691305265,13.683490928171889
1.985917091369629,-241.7414303210439,5.731068185268047e-06
1.985917091369629,-264.88139142318295,5.1140978183532534e-05
1.985917091369629,106.39911486743509,0.00023064467360992162
1.985917091369629,130.14050177598827,0.0007177156095416342
1.985917091369629,174.74844573427944,0.0017654918521588356
1.985917091369629,153.8064666726874,0.003701873150015113
1.985917091369629,123.01792529753094,0.006924303052575556
1.985917091369629,203.08525870544491,0.01189391357799623
1.985917091369629,80.3992869374402,0.01912938448245199
1.985917091369629,111.7329118648868,0.029200916726248742
1.985917091369629,27.562268030259276,0.04272464561699485
1.985917091369629,-56.74932735125206,0.060357497766041546
1.985917091369629,76.24021414162634,0.08279256136301638
1.985917091369629,218.19618238635195,0.1107560903805758
1.985917091369629,135.9978080377731,0.1450072806466487
1.985917091369629,-160.7386852575441,0.186339555236862
1.985917091369629,-515.8871198167338,0.23558047761428993
1.985917091369629,-710.3242537423871,0.2935889765653242
1.985917091369629,-568.0831830103264,0.36125072527108404
1.985917091369629,-359.14435775164463,0.4394730441091696
1.985917091369629,-187.62581207061368,0.5291802346500105
1.985917091369629,40.66536654620009,0.6313095323031771
1.985917091369629,245.25822293362108,0.7468073235869285
1.985917091369629,314.5489317050814,0.8766253680276045
1.985917091369629,340.92912133289747,1.0217171168329433
1.985917091369629,146.36677912754675,1.1830341542766432
1.985917091369629,221.52400985864494,1.3615225839945926
1.985917091369629,430.3435836303601,1.5581193032204936
1.985917091369629,213.57081114813127,1.7737482847592199
1.985917091369629,215.06531251107242,2.0093170018961892
1.985917091369629,132.52255292778108,2.2657130756671173
1.985917091369629,-12.201050390912954,2.543801162146107
1.985917091369629,143.93185067963333,2.8444200717395716
1.985917091369629,233.78277117551906,3.1683801126090185
1.985917091369629,159.10900848228195,3.5164606504809868
1.985917091369629,-155.79661983277,3.8894078772374643
1.985917091369629,-527.7189097056936,4.287932780814828
1.985917091369629,-713.9646574311139,4.712709309073771
1.985917091369629,-580.5635308024384,5.164372720436772
1.985917091369629,-365.89735826382673,5.643518114223408
1.985917091369629,-219.62569952693036,6.150699133747154
1.985917091369629,20.825993848018896,6.686426835370258
1.985917091369629,214.67014696148573,7.2511687168458225
1.985917091369629,297.8882924696343,7.845347898408282
1.985917091369629,309.4853732742793,8.46934245020505
1.985917091369629,220.0371584758521,9.123484859793168
1.985917091369629,232.51789012864452,9.808061633555372
1.985917091369629,288.4534189753965,10.523313026019919
1.985917091369629,175.67943771861755,11.269432891197917
1.985917091369629,153.3539988480522,12.046568650180696
2.0613512992858887,80.77827064497647,5.7933808370472095e-06
2.0613512992858887,106.12951589698528,5.1694802840728377e-05
2.0613512992858887,151.8678466088739,0.0002334302646277504
2.0613512992858887,318.5806445199361,0.000728525250850693
2.0613512992858887,201.3502856930725,0.0018006854528777577
2.0613512992858887,-86.17597576346523,0.003799839661814029
2.0613512992858887,-444.3983517845302,0.0071607842435653804
2.0613512992858887,-672.7475336459122,0.012398770946783133
2.0613512992858887,-534.6720833265857,0.020102928476532295
2.0613512992858887,-335.2184974617665,0.030929054675629675
2.0613512992858887,-174.20952452579434,0.04559280016052296
2.0613512992858887,45.69003525398375,0.06486352890404276
2.0613512992858887,258.6747871421185,0.08955857724527606
2.0613512992858887,321.9671260599091,0.12053762265318496
2.0613512992858887,342.4954478319277,0.15869713442201944
2.0613512992858887,196.86630656630766,0.2049648991558481
2.0613512992858887,237.13696522887847,0.2602945397135079
2.0613512992858887,375.78812064273905,0.3256600343053529
2.0613512992858887,198.05729990245277,0.40205033759076353
2.0613512992858887,187.7297836729402,0.49046427405530313
2.0613512992858887,107.1929181157249,0.5919059004629548
2.0613512992858887,-18.89242715457027,0.7073803121236842
2.0613512992858887,108.87739162581757,0.8378898921714177
2.0613512992858887,220.34005031171364,0.9844318299113598
2.0613512992858887,151.17268541764633,1.1479978945845255
2.0613512992858887,-142.75075710664512,1.3295756386746176
2.0613512992858887,-510.668997661111,1.5301486863466045
2.0613512992858887,-737.2247055530927,1.7506947849694778
2.0613512992858887,-610.6034969235333,1.9921822160610247
2.0613512992858887,-384.66506387139145,2.2555657320670304
2.0613512992858887,-238.80317710788597,2.541782642032734
2.0613512992858887,10.356894526065531,2.8517491681628098
2.0613512992858887,199.40224019201167,3.1863570643280372
2.0613512992858887,280.31838917043615,3.5464704877271074
2.0613512992858887,304.215101610236,3.9329231150619863
2.0613512992858887,241.55282583018578,4.346515494734982
2.0613512992858887,244.7654967952711,4.788012626725036
2.0613512992858887,252.30916582503923,5.258141761949784
2.0613512992858887,171.8109926016883,5.757590413068645
2.0613512992858887,143.04351054530395,6.2870045688304215
2.0613512992858887,80.21492416664056,6.846987104216814
2.0613512992858887,-22.369520319720266,7.438096378780611
2.0613512992858887,96.32179926805274,8.060845015724293
2.0613512992858887,242.94187793664867,8.715698854411208
2.0613512992858887,149.33802064657704,9.403076069147366
2.0613512992858887,-131.648507547633,10.123346447217259
2.0613512992858887,-502.55519624768806,10.876830819301878
2.0613512992858887,-702.082039399967,11.66380063555118
2.0613512992858887,-593.8011172130482,12.484477680726746
2.0613512992858887,-363.06397236090066,13.339033921973213
2.1366465091705322,-244.36126612574583,5.699018435937459e-06
2.1366465091705322,-268.2356782885687,5.093185411869171e-05
2.1366465091705322,104.86065625974713,0.00023008250170414117
2.1366465091705322,129.38958236455673,0.0007170231564978491
2.1366465091705322,176.237273480979,0.0017656235941569437
2.1366465091705322,181.46756210607958,0.003704143330066234
2.1366465091705322,135.2139096752596,0.0069293642989071
2.1366465091705322,174.53781416829756,0.011900476428470674
2.1366465091705322,75.45338647170747,0.01913287810822974
2.1366465091705322,102.05303410193116,0.029192157541163725
2.1366465091705322,24.21149290727297,0.042688578314919595
2.1366465091705322,-51.65362333960613,0.06027206993808422
2.1366465091705322,59.46858890272213,0.0826276910185523
2.1366465091705322,216.38260434633128,0.11047257556626953
2.1366465091705322,146.04870965899738,0.1445555781070226
2.1366465091705322,-153.61461930061606,0.1856585632339481
2.1366465091705322,-489.70473049306145,0.2345965048914266
2.1366465091705322,-693.3912368686367,0.2922149212431184
2.1366465091705322,-589.491309071131,0.3593853986095578
2.1366465091705322,-356.5865897734751,0.43700060888681497
2.1366465091705322,-200.61188423374972,0.5259697509390483
2.1366465091705322,26.299904556542543,0.6272146452808444
2.1366465091705322,246.62635133718112,0.7416662056177938
2.1366465091705322,309.69293906353323,0.870260966704798
2.1366465091705322,348.6278059052094,1.0139375493949185
2.1366465091705322,270.3792170884575,1.173633039125712
2.1366465091705322,279.7816686091618,1.3502792780821116
2.1366465091705322,290.1476132335135,1.5447991225798985
2.1366465091705322,200.01990491901654,1.7581027545741585
2.1366465091705322,173.4031837231669,1.9910841481989132
2.1366465091705322,103.26469700152941,2.244617759744915
2.1366465091705322,-0.9295303465743388,2.519555454489768
2.1366465091705322,95.99744322573318,2.8167236624742484
2.1366465091705322,251.73704388370695,3.1369207554524254
2.1366465091705322,162.15323778783136,3.4809146373766895
2.1366465091705322,-127.12006018740146,3.8494405409120005
2.1366465091705322,-503.09716369954833,4.243199022606635
2.1366465091705322,-696.0724414191467,4.662854149479341
2.1366465091705322,-593.4070337593366,5.109031869915125
2.1366465091705322,-363.2770121315933,5.582318561893861
2.1366465091705322,-218.56659794262538,6.0832597517075016
2.1366465091705322,13.549841843129826,6.612358996452843
2.1366465091705322,220.5121989818719,7.170076923717597
2.1366465091705322,285.5781874395449,7.756830422007801
2.1366465091705322,323.72737283300097,8.372991975594461
2.1366465091705322,269.4118837138684,9.01888913758665
2.1366465091705322,267.3463727502143,9.694804135167068
2.1366465091705322,229.20109241010638,10.4009736010544
2.1366465091705322,169.174774865046,11.13758842538435
2.1366465091705322,138.91824049396138,11.90479372232838
2.211974620819092,75.79610426423986,5.732941090884293e-06
2.211974620819092,98.12627758771777,5.115437262188076e-05
2.211974620819092,129.61145956155167,0.0002309803008782755
2.211974620819092,313.11671435926223,0.0007208323304807847
2.211974620819092,229.37512740291714,0.001781539987601014
2.211974620819092,-74.7163734022269,0.003759211070616109
2.211974620819092,-436.9338897355998,0.007083982211142897
2.211974620819092,-671.9293764077233,0.01226573274240857
2.211974620819092,-528.1338507479004,0.019887610518728185
2.211974620819092,-328.7602346080369,0.030598915738960984
2.211974620819092,-177.79760303746417,0.045108377643046545
2.211974620819092,47.43905060689599,0.06417813128483583
2.211974620819092,252.28077968875488,0.08861813880655485
2.211974620819092,326.5381081234961,0.1192807327029987
2.211974620819092,340.66562728890074,0.15705516099397637
2.211974620819092,237.005910420033,0.2028621069540212
2.211974620819092,255.1028187025246,0.25764818558990993
2.211974620819092,330.7187911056933,0.3223804727606993
2.211974620819092,192.23032428748542,0.3980411440918987
2.211974620819092,172.05716929641045,0.4856223592570561
2.211974620819092,98.8548165775857,0.5861215903633346
2.211974620819092,-23.700919681367097,0.7005374143591395
2.211974620819092,79.35051654834172,0.8298657629726223
2.211974620819092,214.19741719607475,0.9750973975128036
2.211974620819092,162.03461675631908,1.1372176506144582
2.211974620819092,-138.55773276456677,1.3172077087650185
2.211974620819092,-501.95503737324805,1.516045030249066
2.211974620819092,-726.0985062276881,1.7347014689729507
2.211974620819092,-617.1373207662009,1.974139704784024
2.211974620819092,-379.3940514512261,2.2353091885291905
2.211974620819092,-245.4649577736688,2.5191422357588165
2.211974620819092,2.3043357523440875,2.826550390243849
2.211974620819092,202.23784943625725,3.1584210484069875
2.211974620819092,282.8357116569556,3.5156143359182184
2.211974620819092,311.3188555249323,3.8989602278541784
2.211974620819092,266.3761230884476,4.309255903969725
2.211974620819092,261.1228780133006,4.747263330778646
2.211974620819092,227.62825485100288,5.213707062288684
2.211974620819092,170.00431396488844,5.709272251383915
2.211974620819092,143.01660043821423,6.234602863994983
2.211974620819092,82.95108082525952,6.790300088344785
2.211974620819092,-17.398508927010482,7.376920931703792
2.211974620819092,62.29915641813176,7.994976997235329
2.211974620819092,227.30951650961597,8.64493343365683
2.211974620819092,174.49100955039822,9.32720805058813
2.211974620819092,-108.0562391758985,10.042170592602497
2.211974620819092,-481.90613896176876,10.790142165140013
2.211974620819092,-709.0868527198609,11.571394805586301
2.211974620819092,-602.2543398456554,12.38615119296231
2.211974620819092,-360.85949797470187,13.234584489812876
2.284332036972046,-250.7877009629207,5.725831971703118e-06
2.284332036972046,-278.3966791126083,5.119206363481367e-05
2.284332036972046,104.30405198557608,0.00023135677226478882
2.284332036972046,133.86226266852788,0.0007212652508979945
2.284332036972046,181.7410587491687,0.0017765413823026144
2.284332036972046,188.82225035532565,0.003727569249515444
2.284332036972046,139.4993256034549,0.0069734192620365155
2.284332036972046,173.02201421559548,0.011975625741761576
2.284332036972046,76.20642873302786,0.019251940219887343
2.284332036972046,107.5201353178509,0.029370284876055752
2.284332036972046,23.513995041581026,0.04294321593222921
2.284332036972046,-48.4555626507549,0.0606229022202647
2.284332036972046,47.31448949136973,0.08309656262478918
2.284332036972046,206.1146855766212,0.11108330974615495
2.284332036972046,162.45182746600946,0.14533364532436258
2.284332036972046,-138.8432009664892,0.18663068739736877
2.284332036972046,-471.4742589927197,0.2357903228007322
2.284332036972046,-701.8870341688439,0.29365871207555944
2.284332036972046,-599.4621945029692,0.3611078528958375
2.284332036972046,-358.67423308759186,0.4390306257157376
2.284332036972046,-212.85634446960904,0.5283362631341864
2.284332036972046,25.0188533651652,0.6299464478507014
2.284332036972046,238.67165840075637,0.7447917051177777
2.284332036972046,308.5496267072026,0.8738078059443738
2.284332036972046,346.7169147637818,1.0179322300967322
2.284332036972046,296.4401826273901,1.1781007012283522
2.284332036972046,291.6323847998715,1.3552436377473007
2.284332036972046,250.55145806128365,1.5502824838337868
2.284332036972046,189.53342803394534,1.7641260427411278
2.284332036972046,164.77799983258413,1.9976669473051851
2.284332036972046,96.86144774533174,2.2517783492329686
2.284332036972046,9.870365151724002,2.527310845263698
2.284332036972046,90.4694809961189,2.8250896322951657
2.284332036972046,248.69881790456026,3.145911883702003
2.284332036972046,171.04115061219238,3.490544339205997
2.284332036972046,-117.65006475578681,3.8597211007918557
2.284332036972046,-486.3975881489683,4.254141627294811
2.284332036972046,-690.8967750062484,4.674468920419113
2.284332036972046,-603.1372397613272,5.121327895078822
2.284332036972046,-361.38537636288623,5.59530392708431
2.284332036972046,-222.90226138959008,6.096941571329497
2.284332036972046,13.399050593947692,6.6267434437660535
2.284332036972046,223.69844763046413,7.185169260581644
2.284332036972046,286.3763361997645,7.772635028129573
2.284332036972046,326.10755621486226,8.38951237728711
2.284332036972046,223.268660836785,9.036128036049126
2.284332036972046,250.45557560671497,9.712763434292482
2.284332036972046,281.9380925737587,10.419654434774934
2.284332036972046,177.9755748101453,11.156991184559978
2.284332036972046,153.32843414772162,11.924918081186142
2.3574156761169434,77.47548619033084,5.6910229440701416e-06
2.3574156761169434,105.67344954595829,5.077838124752271e-05
2.3574156761169434,117.79057852486882,0.00022929152498917782
2.3574156761169434,300.07470036188096,0.000715641818445473
2.3574156761169434,242.69272040404547,0.0017689777525815428
2.3574156761169434,-74.37734389787826,0.0037332542843203686
2.3574156761169434,-423.9474793909743,0.007035886829887337
2.3574156761169434,-665.31954243129,0.012183388316703868
2.3574156761169434,-539.8466190532893,0.01975489607559816
2.3574156761169434,-325.8546814502309,0.030395114886725458
2.3574156761169434,-180.36217381551302,0.044807685422629216
2.3574156761169434,54.84713345761617,0.06374923182141248
2.3574156761169434,248.02773642359358,0.08802374177924911
2.3574156761169434,319.9616772834914,0.11847700491213001
2.3574156761169434,343.614300898264,0.15599121507314156
2.3574156761169434,250.97300033347176,0.20147975189541092
2.3574156761169434,257.38482354263243,0.25588192500371776
2.3574156761169434,303.4087866774753,0.320157624708949
2.3574156761169434,189.10078234362194,0.39528201501039767
2.3574156761169434,166.24973904381417,0.4822404413384817
2.3574156761169434,94.72281038354532,0.5820237509703506
2.3574156761169434,-26.19333320406234,0.695624075452285
2.3574156761169434,60.7063314059816,0.8240311026351375
2.3574156761169434,209.81133113185254,0.9682295806109552
2.3574156761169434,175.6349477392921,1.1291990712875655
2.3574156761169434,-132.68738225830964,1.3079152688963671
2.3574156761169434,-510.62598117279174,1.5053504879342383
2.3574156761169434,-722.7530988241007,1.7224718337973923
2.3574156761169434,-602.4725731044516,1.9602376386384603
2.3574156761169434,-370.50131357829804,2.2195933997652757
2.3574156761169434,-238.83296266381188,2.5014678674691266
2.3574156761169434,11.656828582719157,2.8067694022977325
2.3574156761169434,205.73661053221002,3.136382592896412
2.3574156761169434,288.87193805286216,3.49116512568984
2.3574156761169434,312.4492987371123,3.8719448978254456
2.3574156761169434,211.77724702731234,4.279517364947889
2.3574156761169434,238.68803249238888,4.714643115522081
2.3574156761169434,297.9296752968717,5.178045663569965
2.3574156761169434,183.57602209273097,5.670409451833601
2.3574156761169434,154.29747709152255,6.192378057524094
2.3574156761169434,92.9723021553996,6.744552592962423
2.3574156761169434,-29.875131834173743,7.327490293564382
2.3574156761169434,63.95188399104971,7.941703285767462
2.3574156761169434,209.3554059529755,8.587657527642666
2.3574156761169434,186.75484176252698,9.265771915078869
2.3574156761169434,-120.8249483366323,9.976417546571398
2.3574156761169434,-478.02045937024326,10.719917139790008
2.3574156761169434,-704.6985936929598,11.496544593244304
2.3574156761169434,-613.2697399937019,12.30652468650687
2.3574156761169434,-358.5961604243668,13.150032912595943
2.429896354675293,-249.20908195239517,5.712197168827081e-06
2.429896354675293,-276.03819450343883,5.10689411634259e-05
2.429896354675293,102.82122220843713,0.00023079364715372836
2.429896354675293,131.1350197870729,0.0007194834140076386
2.429896354675293,181.31429777012193,0.0017720746720575197
2.429896354675293,187.25809027992264,0.003718016294898895
2.429896354675293,139.23040009908365,0.006955202030560817
2.429896354675293,175.99850117626914,0.011943766352236457
2.429896354675293,73.63726318493636,0.019199853192207572
2.429896354675293,105.40080682418167,0.029289562975613456
2.429896354675293,22.726196766752835,0.04282340357179408
2.429896354675293,-51.823582819850955,0.06045130791977027
2.429896354675293,28.881197654722286,0.08285811771423619
2.429896354675293,196.2834594034373,0.11076034959492134
2.429896354675293,186.9019022148227,0.1449055529790278
2.429896354675293,-115.93662647609054,0.18607352312181252
2.429896354675293,-439.72723253574736,0.23507654538476488
2.429896354675293,-703.9719416215787,0.2927569808371346
2.429896354675293,-616.6448400013386,0.35998288005342516
2.429896354675293,-357.97685332152673,0.4376430601867614
2.429896354675293,-228.91672953455253,0.5266425884311624
2.429896354675293,22.322430863434903,0.6278988967070529
2.429896354675293,235.89098760395592,0.7423382239306987
2.429896354675293,308.66967520813773,0.870892086033072
2.429896354675293,342.1374883904221,1.0144937397928184
2.429896354675293,294.32050832885335,1.174074638932832
2.429896354675293,289.31838304436076,1.3505608163558565
2.429896354675293,244.88957380598973,1.5448692010947154
2.429896354675293,189.66240353105925,1.7579039681810247
2.429896354675293,163.73643180002068,1.9905530362810155
2.429896354675293,96.8825917662983,2.243684786042134
2.429896354675293,-0.7112517666523956,2.5181450136524153
2.429896354675293,64.1167046934173,2.814754111755469
2.429896354675293,240.66362399637217,3.1343044699969114
2.429896354675293,206.6163734148272,3.477558087610831
2.429896354675293,-91.81465023939737,3.8452443905873674
2.429896354675293,-458.97263370556414,4.238058246094689
2.429896354675293,-693.0742100781596,4.656658166960578
2.429896354675293,-608.7537872405298,5.101664699150388
2.429896354675293,-356.09990791238,5.573658985309379
2.429896354675293,-231.1720120776356,6.073181497568299
2.429896354675293,20.53399047083107,6.600730932941532
2.429896354675293,216.37157218165527,7.156763264777154
2.429896354675293,288.58259385649825,7.741690943847863
2.429896354675293,319.2179708763277,8.355882242800808
2.429896354675293,244.67784564317276,8.999660737813
2.429896354675293,257.2003146675195,9.673304921427043
2.429896354675293,246.80364158722475,10.37704794066946
2.429896354675293,174.72823971406513,11.111077454680819
2.429896354675293,141.84784997950365,11.875535606213218
2.502373218536377,70.45566973927055,5.62154733866451e-06
2.502373218536377,97.98468999051215,5.0154713870691755e-05
2.502373218536377,97.33679137839947,0.00022642449760671085
2.502373218536377,292.0767850963379,0.0007064198859525647
2.502373218536377,270.84852716966765,0.001745324356248621
2.502373218536377,-65.8882614091817,0.0036814871091393336
2.502373218536377,-386.3957492756297,0.006935250718812925
2.502373218536377,-645.0487060837493,0.012004820393162557
2.502373218536377,-565.8028151604417,0.019459945360987618
2.502373218536377,-320.1974432367188,0.029934984888244122
2.502373218536377,-191.02911242248052,0.044122391378616406
2.502373218536377,53.98293379593147,0.06276687544716635
2.502373218536377,249.44187265901317,0.08665994562235307
2.502373218536377,314.3158043859745,0.11663451439447617
2.502373218536377,337.73911548885053,0.15355955894521126
2.502373218536377,276.6586418149013,0.1983348446497591
2.502373218536377,271.7760933734875,0.25188562448596713
2.502373218536377,248.5846365410952,0.31515731554672466
2.502373218536377,178.78807856400908,0.38911025087143875
2.502373218536377,151.64602432694284,0.47471465472408114
2.502373218536377,78.11030031748159,0.5729460420325415
2.502373218536377,-25.01250322054372,0.6847810984224524
2.502373218536377,42.569746133054764,0.8111940469345882
2.502373218536377,213.16933358734633,0.9531542175263127
2.502373218536377,197.96129530247032,1.1116258613746999
2.502373218536377,-121.19325815249019,1.2875695492013903
2.502373218536377,-479.785753470734,1.4819427336480626
2.502373218536377,-695.9710105706026,1.6956979710389875
2.502373218536377,-622.2082217186896,1.9297793992858672
2.502373218536377,-362.1434873631769,2.185118719586375
2.502373218536377,-238.80238989007546,2.462631326243708
2.502373218536377,16.786168973947298,2.7632127025638717
2.502373218536377,208.48739408840288,3.087735074071346
2.502373218536377,280.7056384510521,3.437044310430651
2.502373218536377,315.28490174818637,3.8119570676079646
2.502373218536377,231.89406505928417,4.213258161953256
2.502373218536377,250.51686834265936,4.641698168029443
2.502373218536377,250.07977106680212,5.097991232160742
2.502373218536377,177.59542560938323,5.582813093817741
2.502373218536377,142.41217290395505,6.096799307101656
2.502373218536377,78.49365398064923,6.640543654734786
2.502373218536377,-30.7312929878547,7.21459674710828
2.502373218536377,42.47447331192241,7.819464799081997
2.502373218536377,209.4137235900917,8.455608577374367
2.502373218536377,199.7570944826037,9.123442511522853
2.502373218536377,-102.99993639497518,9.823333961537664
2.502373218536377,-471.7443894297782,10.555602635512901
2.502373218536377,-702.404738036674,11.320520150600279
2.502373218536377,-610.3846553828168,12.118309730890791
2.502373218536377,-353.1035863207462,12.94914603588934
2.5762839317321777,-249.1531025548588,5.694922684721963e-06
2.5762839317321777,-274.8349723467125,5.091229752926719e-05
2.5762839317321777,105.08052108832966,0.00023007584840103372
2.5762839317321777,130.85031495092954,0.0007172361406550821
2.5762839317321777,179.51492566252375,0.0017666068621543746
2.5762839317321777,187.27931183617346,0.003706885521432924
2.5762839317321777,139.69798073537046,0.006935302401674141
2.5762839317321777,174.8574663908779,0.011911457941714158
2.5762839317321777,75.14371633513942,0.01915109070724693
2.5762839317321777,108.01205289704063,0.029219991117308275
2.5762839317321777,19.277563361951877,0.04272836416849837
2.5762839317321777,-55.361352881624796,0.06032573696981195
2.5762839317321777,10.072417965595918,0.08269638243384014
2.5762839317321777,187.35663628004502,0.11055610359373551
2.5762839317321777,203.15806196321518,0.1446516923564007
2.5762839317321777,-115.34617404845378,0.18576229892425206
2.5762839317321777,-455.8684614632703,0.2346998029780789
2.5762839317321777,-710.2637995691141,0.29230645629685625
2.5762839317321777,-592.7289092745368,0.3594505121367018
2.5762839317321777,-350.64202962364993,0.4370212954695742
2.5762839317321777,-218.65803711882057,0.5259246711882867
2.5762839317321777,37.74687404807034,0.6270791686736459
2.5762839317321777,233.9269455562582,0.7414124893739905
2.5762839317321777,314.68162674395813,0.8698580628625211
2.5762839317321777,339.5202362603644,1.0133515176598031
2.5762839317321777,290.8595084949176,1.172827045828196
2.5762839317321777,288.15857793777184,1.3492136870061295
2.5762839317321777,269.96117416196194,1.543431591792858
2.5762839317321777,200.8205548432027,1.75638834111968
2.5762839317321777,164.3858463856316,1.9889754173985341
2.5762839317321777,97.72208304444983,2.242064897863156
2.5762839317321777,-20.302335244907766,2.5165063843667688
2.5762839317321777,41.23694659717498,2.8131241617451264
2.5762839317321777,215.17507116098363,3.132714576987184
2.5762839317321777,205.2745733243772,3.4760436315888965
2.5762839317321777,-92.50936353846257,3.843844779598599
2.5762839317321777,-458.7097054894388,4.2368169239951055
2.5762839317321777,-703.8215586427414,4.655622604172041
2.5762839317321777,-615.1686455974784,5.1008863674339535
2.5762839317321777,-356.52206644928486,5.573193317541459
2.5762839317321777,-241.1782388911064,6.073087833473999
2.5762839317321777,20.183530038162132,6.601072451709714
2.5762839317321777,213.90060249037458,7.157606905452424
2.5762839317321777,293.0289334627289,7.743107314365771
2.5762839317321777,322.6950492058025,8.357945518504168
2.5762839317321777,274.31402417623303,9.002448550259246
2.5762839317321777,269.72557571442445,9.676898238269054
2.5762839317321777,218.9751490047666,10.381530937365266
2.5762839317321777,169.66933758004717,11.11653737876104
2.5762839317321777,141.44922757473566,11.88206263480897
2.653671979904175,70.03022631799416,5.655315217278825e-06
2.653671979904175,94.55010014810208,5.045197665469708e-05
2.653671979904175,75.59762987959846,0.00022770706404791628
2.653671979904175,285.91472609693164,0.0007101218338742526
2.653671979904175,293.19586348781087,0.0017535865575309725
2.653671979904175,-40.703448374045564,0.003697081566804356
2.653671979904175,-370.19827932514426,0.00696163962196478
2.653671979904175,-661.9914018219276,0.012046362906004991
2.653671979904175,-563.872055606328,0.019522176071891075
2.653671979904175,-321.3723969258043,0.03002490253757075
2.653671979904175,-204.79215308119677,0.04424872082527583
2.653671979904175,49.9360466250682,0.06294031565307107
2.653671979904175,238.76040549839024,0.08689347191835063
2.653671979904175,319.5576812285917,0.11694376955293322
2.653671979904175,338.14261934138324,0.15396323848245247
2.653671979904175,291.62931541107116,0.1988549535115326
2.653671979904175,278.7505895463617,0.2525476019655714
2.653671979904175,237.9529675868431,0.31599009349019547
2.653671979904175,176.16861512482308,0.3901462801387189
2.653671979904175,150.98676153919578,0.4759899041086797
2.653671979904175,82.27862102048394,0.5744999801416706
2.653671979904175,-24.585405696443786,0.6866566953057885
2.653671979904175,20.783580075163883,0.8134377883609607
2.653671979904175,201.56519735081753,0.9558159901410384
2.653671979904175,217.32766752400792,1.114758565881737
2.653671979904175,-110.45489224268755,1.2912285215051007
2.653671979904175,-451.105802464382,1.4861851692211294
2.653671979904175,-693.3015945177181,1.7005824171194823
2.653671979904175,-641.0671976938984,1.9353652827815122
2.653671979904175,-361.9268166400431,2.1914659000293044
2.653671979904175,-258.15840178531926,2.469799677285574
2.653671979904175,5.339549742304371,2.7712617210423804
2.653671979904175,206.3604691312139,3.096723515697941
2.653671979904175,280.2396239772338,3.447029851167572
2.653671979904175,317.1221807657289,3.822995989821257
2.653671979904175,264.46545444116464,4.22540506444655
2.653671979904175,265.09129133106984,4.655005699081386
2.653671979904175,210.5805219142594,5.112509844706936
2.653671979904175,169.35805809840653,5.598590821935823
2.653671979904175,137.56910210324543,6.113881562975832
2.653671979904175,77.1041504854541,6.658973045293641
2.653671979904175,-26.846956311337607,7.234412909547069
2.653671979904175,16.6318579261914,7.840704254497833
2.653671979904175,207.8721749818706,8.478304601759847
2.653671979904175,225.6101217665273,9.147625023380533
2.653671979904175,-94.20013063880694,9.849029425394622
2.653671979904175,-441.427127596203,10.582833980631271
2.653671979904175,-681.7222640338612,11.349306704196076
2.653671979904175,-627.9811709636193,12.148667165189714
2.653671979904175,-346.7025927195883,12.981086328364393
2.7280399799346924,-253.77700079136264,5.684848568965295e-06
2.7280399799346924,-281.18336378685956,5.0827327151277476e-05
2.7280399799346924,105.38084827056231,0.0002297216355104571
2.7280399799346924,134.05618748025498,0.000716240014414723
2.7280399799346924,183.63140044130552,0.0017644432715788702
2.7280399799346924,192.46325318986163,0.003702979657618479
2.7280399799346924,141.74429926848353,0.00692918125778689
2.7280399799346924,169.1967310235574,0.011902896912779442
2.7280399799346924,71.11322319027207,0.019140223563141375
2.7280399799346924,108.73757594461907,0.02920737360262135
2.7280399799346924,18.026738990597096,0.04271497304674384
2.7280399799346924,-54.79198964538948,0.060312915433640285
2.7280399799346924,-13.122893264077064,0.08268575463845589
2.7280399799346924,180.89310877430148,0.1105494033011898
2.7280399799346924,233.6755777522593,0.14465047884329743
2.7280399799346924,-105.25855214957033,0.18576769345977628
2.7280399799346924,-429.75118542103195,0.23471237471079592
2.7280399799346924,-700.6906765710148,0.29232623912778277
2.7280399799346924,-604.3583149543724,0.3594770850333399
2.7280399799346924,-346.1388122028782,0.437053883142601
2.7280399799346924,-231.60150350464795,0.5259622437229794
2.7280399799346924,32.55589726284694,0.6271205468504999
2.7280399799346924,228.48958143767527,0.7414564754503904
2.7280399799346924,312.20665596590015,0.8699036138584818
2.7280399799346924,340.448714245945,1.0133979797109969
2.7280399799346924,296.25197364844314,1.1728744589708484
2.7280399799346924,296.55118411202744,1.3492631392418348
2.7280399799346924,272.7192342257374,1.5434855804565624
2.7280399799346924,216.4802334739813,1.7564511112442769
2.7280399799346924,158.45645174915833,1.9890532683837774
2.7280399799346924,82.99567312680625,2.2421664589089825
2.7280399799346924,-28.353745102519625,2.51664286006549
2.7280399799346924,3.864301287539007,2.8133095491911284
2.7280399799346924,192.28278097786895,3.1329658557274422
2.7280399799346924,220.46539094774124,3.4763809277027247
2.7280399799346924,-85.01864761181415,3.84429150516064
2.7280399799346924,-436.25437901127395,4.237399893141634
2.7280399799346924,-703.151081034277,4.656372126957147
2.7280399799346924,-631.7519067443957,5.101836322629181
2.7280399799346924,-354.1233625267258,5.574381205499909
2.7280399799346924,-255.67381564769897,6.07455481014783
2.7280399799346924,16.684068065964766,6.60286334487833
2.7280399799346924,211.89202491859135,7.159770214187515
2.7280399799346924,293.4212320126182,7.745695192728662
2.7280399799346924,327.59838672526115,8.361013744440694
2.7280399799346924,278.1572627672549,9.006056480627631
2.7280399799346924,278.4358932781869,9.681108750906962
2.7280399799346924,233.89619309373387,10.386410361073354
2.7280399799346924,187.9008613231837,11.122155412051969
2.7280399799346924,144.74109482541462,11.888492254242902
2.8019609451293945,76.8709086969381,5.668516293896223e-06
2.8019609451293945,104.2104061458063,5.0563866884666925e-05
2.8019609451293945,53.96764675100718,0.00022814860427340037
2.8019609451293945,269.7159661283438,0.0007112122130476828
2.8019609451293945,307.7442011209389,0.0017554960843814338
2.8019609451293945,-36.31886976002454,0.0036995948971888675
2.8019609451293945,-350.4912393536862,0.006964084318923121
2.8019609451293945,-659.9681143679119,0.012047682318681094
2.8019609451293945,-577.9876739486399,0.019521061956856794
2.8019609451293945,-320.0339699093004,0.030019925239546188
2.8019609451293945,-214.93324760793763,0.04423842137204127
2.8019609451293945,46.25605537607589,0.0629232632074083
2.8019609451293945,233.71643748486687,0.08686830385404141
2.8019609451293945,319.97368453090405,0.1169092186054381
2.8019609451293945,341.1561369963516,0.15391814629312095
2.8019609451293945,296.67345824951246,0.1987982705474978
2.8019609451293945,281.984290504691,0.25247837487938096
2.8019609451293945,231.30386393628478,0.3159074458479625
2.8019609451293945,173.98819558240368,0.3900493935393575
2.8019609451293945,146.91902214148462,0.47587799974945133
2.8019609451293945,87.48277702436798,0.5743723031191751
2.8019609451293945,-21.02390822964655,0.6865125201357535
2.8019609451293945,3.788180416834635,0.8132764263155431
2.8019609451293945,197.0526089903625,0.9556366787488857
2.8019609451293945,236.74980851157443,1.1145601660152546
2.8019609451293945,-91.35228858043058,1.2910091687824161
2.8019609451293945,-421.927381270555,1.4859420672149763
2.8019609451293945,-694.7436017255353,1.7003117664357372
2.8019609451293945,-656.2003804264102,1.935062252183471
2.8019609451293945,-362.4486335427397,2.1911246038682384
2.8019609451293945,-269.6979319836353,2.4694131585684533
2.8019609451293945,2.555806091541541,2.7708219398354124
2.8019609451293945,195.93855563898796,3.0962213425731706
2.8019609451293945,277.49609041109824,3.446455065408271
2.8019609451293945,318.8120630192653,3.8223372821101855
2.8019609451293945,261.05624063047185,4.224650043769397
2.8019609451293945,265.4334868425242,4.654140903585808
2.8019609451293945,207.96649743244728,5.111520756265596
2.8019609451293945,167.5103290320449,5.597461884169691
2.8019609451293945,133.78727947952794,6.112596202501738
2.8019609451293945,81.88506334737637,6.657513695967704
2.8019609451293945,-24.648062426804344,7.232761039483103
2.8019609451293945,1.3482458236485257,7.838840395647201
2.8019609451293945,205.17145029036442,8.476208381846464
2.8019609451293945,240.74462883255597,9.145275199991877
2.8019609451293945,-84.84200996232482,9.846403922036588
2.8019609451293945,-406.6415514021503,10.579909924561575
2.8019609451293945,-671.5859205478147,11.346060465857695
2.8019609451293945,-652.6901382990361,12.14507439907246
2.8019609451293945,-347.06209440573537,12.977122015129236
2.8770172595977783,-255.40040331991727,5.7088475631839215e-06
2.8770172595977783,-281.3695798593737,5.104395660590524e-05
2.8770172595977783,107.38861978319954,0.00023070467318217467
2.8770172595977783,134.21680994797254,0.0007192768687417259
2.8770172595977783,187.7865541049424,0.0017717147015932815
2.8770172595977783,194.99278556461985,0.0037175078679302365
2.8770172595977783,139.22893544164162,0.006954604487014368
2.8770172595977783,172.25230633540988,0.011943207737103284
2.8770172595977783,76.31626850890989,0.019199545007930675
2.8770172595977783,109.75098583119569,0.02928977482038395
2.8770172595977783,19.902032444163822,0.04282436022441764
2.8770172595977783,-52.44094871232066,0.06045309257260777
2.8770172595977783,-31.777318414848104,0.08286065616118907
2.8770172595977783,169.83847731113235,0.11076332725859367
2.8770172595977783,243.79960308370755,0.14490814929277404
2.8770172595977783,-101.78545826301294,0.18607411547125252
2.8770172595977783,-409.2963418870303,0.2350725355322859
2.8770172595977783,-699.4668613169968,0.2927447463993534
2.8770172595977783,-622.0180650537662,0.35995781643067376
2.8770172595977783,-348.0133781489279,0.437599659197584
2.8770172595977783,-247.04865196313705,0.5265745097155426
2.8770172595977783,21.340611962501953,0.6277990638299757
2.8770172595977783,223.9844313828948,0.7421990207530467
2.8770172595977783,310.35285328712314,0.8707056753325328
2.8770172595977783,343.63952525688063,1.0142524130838113
2.8770172595977783,299.8587878531221,1.1737710856445571
2.8770172595977783,291.8074864152693,1.3501882975838242
2.8770172595977783,240.7200023828746,1.5444216714019254
2.8770172595977783,190.20628125490794,1.7573761743423337
2.8770172595977783,163.19770366950405,1.9899406036452958
2.8770172595977783,101.61730441842627,2.2429842956947077
2.8770172595977783,-8.330214886689816,2.5173540707859843
2.8770172595977783,0.41291900313709107,2.813871405647479
2.8770172595977783,205.726585993666,3.1333298259811224
2.8770172595977783,266.4745425821004,3.4764925114208407
2.8770172595977783,-63.61428361264316,3.844090105439927
2.8770172595977783,-420.47409776919596,4.236818722870882
2.8770172595977783,-697.7282187602237,4.655338147833272
2.8770172595977783,-620.8167846582036,5.100270214996866
2.8770172595977783,-346.94049267439334,5.572197367238655
2.8770172595977783,-261.8432552152144,6.071661382883371
2.8770172595977783,16.074765123256896,6.599162265847675
2.8770172595977783,202.12524483168238,7.15515729213838
2.8770172595977783,294.6379446863298,7.74006020628476
2.8770172595977783,323.97149816447165,8.354240561414253
2.8770172595977783,276.17262066525996,8.998023196809616
2.8770172595977783,271.4275091981282,9.671687846913764
2.8770172595977783,215.00607311686244,10.375468875876235
2.8770172595977783,170.379318337107,11.109555131862225
2.8770172595977783,132.92012094053442,11.874089915471654
2.9515066146850586,69.89587576390687,5.695199056039372e-06
2.9515066146850586,94.90917202906832,5.080168776399619e-05
2.9515066146850586,37.74381775657445,0.00022920763786065564
2.9515066146850586,263.6897458376005,0.0007144455241626259
2.9515066146850586,327.5909226423371,0.0017633198463826373
2.9515066146850586,-23.191477250668555,0.0037158966227902436
2.9515066146850586,-331.83121714307526,0.0069947767887783225
2.9515066146850586,-656.7526874044679,0.012101366427423509
2.9515066146850586,-583.5350616638984,0.019609742595287857
2.9515066146850586,-315.6925167126851,0.030159724765596262
2.9515066146850586,-228.18760754421038,0.04445025178593642
2.9515066146850586,41.59561402800594,0.06323346292703252
2.9515066146850586,233.85605090244374,0.08730927632805642
2.9515066146850586,319.99717867132443,0.11752013442941449
2.9515066146850586,346.0776944109209,0.15474579138443484
2.9515066146850586,301.26301955620147,0.1998980759042394
2.9515066146850586,288.51220175946924,0.2539155506288748
2.9515066146850586,254.34068002129555,0.317758091028192
2.9515066146850586,196.89602239925665,0.3924015068622786
2.9515066146850586,149.37726359778333,0.4788323625740943
2.9515066146850586,84.76346925946166,0.5780431849389481
2.9515066146850586,-31.76639053758008,0.6910281615253451
2.9515066146850586,-26.834186909500147,0.8187793358975358
2.9515066146850586,171.48480390398328,0.9622838693857221
2.9515066146850586,235.88954724891772,1.1225234680442666
2.9515066146850586,-91.07824499998782,1.300475634221183
2.9515066146850586,-412.90390490980536,1.4971143455504337
2.9515066146850586,-703.2730610189724,1.7134083696352096
2.9515066146850586,-670.2711588108216,1.950317717145571
2.9515066146850586,-364.75375019911456,2.2087895704366542
2.9515066146850586,-293.5508081596606,2.489754368412555
2.9515066146850586,-13.412403340610098,2.794122160951513
2.9515066146850586,198.43450465413036,3.1227792240141365
2.9515066146850586,280.7298289041679,3.4765849267053364
2.9515066146850586,326.02491130790656,3.856368841709253
2.9515066146850586,274.2462231615525,4.262928090664834
2.9515066146850586,287.28905959990846,4.697024916197747
2.9515066146850586,260.64223425737066,5.159384472472023
2.9515066146850586,207.02932578558008,5.650692826272151
2.9515066146850586,142.1582364235156,6.171595160773329
2.9515066146850586,82.80253554092081,6.722694174304066
2.9515066146850586,-39.67674096159014,7.3045486665515
2.9515066146850586,-33.592556878499735,7.917672304805369
2.9515066146850586,166.3090956335687,8.56253256298175
2.9515066146850586,231.04638484364193,9.23954982631227
2.9515066146850586,-81.03876524577521,9.949096654728596
2.9515066146850586,-418.89005659890756,10.691497198115426
2.9515066146850586,-700.0525363037715,11.467026756748151
2.9515066146850586,-649.3554779404278,12.275911480373502
2.9515066146850586,-349.18918056167905,13.118328199533108
3.0262937545776367,-261.3790029768012,5.751361654314314e-06
3.0262937545776367,-288.62233113396724,5.1420722433179975e-05
3.0262937545776367,108.15277412393225,0.0002323938228927808
3.0262937545776367,136.0325141302631,0.0007245084054608585
3.0262937545776367,191.16282712086357,0.0017845384245834314
3.0262937545776367,198.97774240322673,0.0037443311553303172
3.0262937545776367,144.46597585027553,0.007004709426086772
3.0262937545776367,189.28982375875484,0.012029257009164032
3.0262937545776367,87.0654844262791,0.019338072540784672
3.0262937545776367,114.37997283999323,0.029501640333500036
3.0262937545776367,29.27595198887559,0.04313514539610729
3.0262937545776367,-64.51742979293432,0.06089342960409852
3.0262937545776367,-58.451505110637136,0.08346649582558822
3.0262937545776367,154.6979888979143,0.11157611947087667
3.0262937545776367,245.01275818733848,0.14597485232498777
3.0262937545776367,-106.9383934055154,0.18744702502325306
3.0262937545776367,-404.20874580100207,0.23680904687254886
3.0262937545776367,-691.7805230153891,0.29490712971641075
3.0262937545776367,-634.0741686828978,0.3626130064544787
3.0262937545776367,-345.47368886798154,0.4408190521079086
3.0262937545776367,-253.1095348668719,0.5304337600775071
3.0262937545776367,17.450598001464783,0.6323778744457997
3.0262937545776367,224.63413599987013,0.7475809334580078
3.0262937545776367,310.3559738556976,0.8769778732650305
3.0262937545776367,350.26065584378057,1.021505533845079
3.0262937545776367,298.23505227117346,1.182099039820088
3.0262937545776367,295.15687002073696,1.359688091740634
3.0262937545776367,243.49174000774642,1.555193236702686
3.0262937545776367,192.90882779139167,1.7695221970886734
3.0262937545776367,170.3782708072951,2.003566352849096
3.0262937545776367,115.06796455807839,2.2581974465111716
3.0262937545776367,-4.477726996449448,2.5342645244133934
3.0262937545776367,-5.836435582762753,2.8325911062739264
3.0262937545776367,202.6780917039439,3.1539725753343704
3.0262937545776367,264.3821275790581,3.49917378145379
3.0262937545776367,-78.08297631971391,3.86892684966101
3.0262937545776367,-417.76647850538967,4.263929186805989
3.0262937545776367,-680.0909749858748,4.684841679083608
3.0262937545776367,-631.5336855872897,5.132287073335373
3.0262937545776367,-343.74306712547667,5.606848535166394
3.0262937545776367,-265.9129800604221,6.109068377046423
3.0262937545776367,9.27615368181381,6.6394469496948165
3.0262937545776367,208.39079743349726,7.198441690179909
3.0262937545776367,289.12360304313086,7.786466320293458
3.0262937545776367,327.6682040688419,8.403890188890545
3.0262937545776367,277.35289016664376,9.051037752014462
3.0262937545776367,274.86092567976164,9.728188184754861
3.0262937545776367,215.62594821121883,10.435575118915489
3.0262937545776367,170.73105495583576,11.173386500695347
3.0262937545776367,139.08824246906315,11.941764562714093
3.1013028621673584,77.12841392560537,5.731257047102832e-06
3.1013028621673584,102.3559475919467,5.1120143625260683e-05
3.1013028621673584,31.152864982253185,0.00023062366523737146
3.1013028621673584,261.8637506204486,0.0007187983740947765
3.1013028621673584,330.38811485423196,0.001773962425288104
3.1013028621673584,-26.44985253851371,0.003738224269179314
3.1013028621673584,-338.68634373510497,0.007036762314150457
3.1013028621673584,-661.4518104564113,0.012174070838920813
3.1013028621673584,-578.0416650375594,0.01972780498865608
3.1013028621673584,-316.3360443258434,0.03034181841712318
3.1013028621673584,-237.24419353555373,0.044719488509069455
3.1013028621673584,35.65579446226283,0.06361774928821919
3.1013028621673584,240.15450904157603,0.08784162997755952
3.1013028621673584,322.83282919232363,0.11823893129189768
3.1013028621673584,346.8806242108186,0.15569485965988106
3.1013028621673584,307.52545429197454,0.2011265792947265
3.1013028621673584,287.51846367954363,0.2554777182927113
3.1013028621673584,256.8434738950579,0.3197129059513853
3.1013028621673584,199.20403498712696,0.39481240577060556
3.1013028621673584,151.80842273935232,0.4817669494550393
3.1013028621673584,84.10989675223803,0.5815729934409468
3.1013028621673584,-35.43364063980458,0.6952285412674604
3.1013028621673584,-30.843862293328662,0.8237294490135242
3.1013028621673584,168.5908907643812,0.9680666355891059
3.1013028621673584,239.07079580163557,1.129225328048564
3.1013028621673584,-79.11798341374674,1.308186173417599
3.1013028621673584,-409.6665633306536,1.5059258803394457
3.1013028621673584,-716.8638126154315,1.723415540182051
3.1013028621673584,-668.4626357562101,1.961617092053784
3.1013028621673584,-367.99003683383046,2.2214792662271794
3.1013028621673584,-301.946915299048,2.5039336852067793
3.1013028621673584,-16.35502923867395,2.809891234061745
3.1013028621673584,195.73526092713172,3.1402386911435047
3.1013028621673584,282.5639234865648,3.495835610457792
3.1013028621673584,326.7705380154731,3.877511447109254
3.1013028621673584,280.1308341325009,4.2860629173853475
3.1013028621673584,278.53908751705166,4.722251585194429
3.1013028621673584,224.03719034040478,5.1868016667208545
3.1013028621673584,177.89987911035135,5.680398045307396
3.1013028621673584,152.86392006262918,6.203684488722417
3.1013028621673584,91.66328489115547,6.757262061115946
3.1013028621673584,-29.261578351372094,7.3416877221150845
3.1013028621673584,-19.454215373455533,7.957473105654949
3.1013028621673584,186.47448714106747,8.605083471286667
3.1013028621673584,272.4235963850751,9.284936820848728
3.1013028621673584,-54.9241130995043,9.997403173532204
3.1013028621673584,-390.8604012585663,10.74280399251398
3.1013028621673584,-695.3135378426414,11.521411756475176
3.1013028621673584,-651.3270278507272,12.333449669464281
3.1013028621673584,-347.0016303212536,13.179091502706271
3.1766700744628906,-270.88430467847616,5.819414991685215e-06
3.1766700744628906,-294.98630365749244,5.2033833261902384e-05
3.1766700744628906,114.74759977179201,0.00023518667722040212
3.1766700744628906,137.46835405437224,0.0007332817607627663
3.1766700744628906,198.4685826607047,0.0018062968884708375
3.1766700744628906,205.76196573699536,0.0037902575835628382
3.1766700744628906,145.24525927826824,0.007091067215893563
3.1766700744628906,184.35412525252173,0.012178218834961035
3.1766700744628906,80.0952088310505,0.019578470283487623
3.1766700744628906,118.10459283307009,0.02986962660959966
3.1766700744628906,23.938158437049267,0.043674759791815884
3.1766700744628906,-60.473463487025995,0.0616570901070358
3.1766700744628906,-58.09490101535045,0.08451542181817812
3.1766700744628906,149.59497399990778,0.1129805917177761
3.1766700744628906,257.9840996478354,0.14781422725592064
3.1766700744628906,-84.64396185887426,0.1898096105071635
3.1766700744628906,-383.84318269991763,0.23979200596349412
3.1766700744628906,-707.296275195449,0.298616440859089
3.1766700744628906,-643.062244702588,0.36716342869787316
3.1766700744628906,-350.60861026730385,0.44633405604529947
3.1766700744628906,-275.47507536388315,0.5370454053801248
3.1766700744628906,4.6113846847163416,0.640226640344868
3.1766700744628906,219.88887352267616,0.7568155135088156
3.1766700744628906,312.2654549824566,0.8877549347385827
3.1766700744628906,351.09369328373447,1.033989445759787
3.1766700744628906,307.11259629992844,1.1964615815053175
3.1766700744628906,300.40077223975476,1.3761081545624794
3.1766700744628906,247.31899907567364,1.5738565238850042
3.1766700744628906,193.78430934809822,1.7906209166931522
3.1766700744628906,177.76870745010248,2.027298898740918
3.1766700744628906,112.58244077778622,2.284768066989266
3.1766700744628906,-15.465905214648743,2.563882979895755
3.1766700744628906,-13.015885408144968,2.8654723173750245
3.1766700744628906,190.44168817692588,3.1903362626192107
3.1766700744628906,280.63728966782725,3.539244098101751
3.1766700744628906,-68.68243970600173,3.912932008222126
3.1766700744628906,-395.1972847552212,4.312101081182911
3.1766700744628906,-673.5638664377506,4.737415502824007
3.1766700744628906,-650.4928982018544,5.189500935272113
3.1766700744628906,-341.10308881616174,5.668943073396314
3.1766700744628906,-275.66847620540153,6.176286372193086
3.1766700744628906,7.85258148994896,6.71203293835608
3.1766700744628906,200.52301436002318,7.276641579417635
3.1766700744628906,288.5716409273948,7.870527003980141
3.1766700744628906,331.51525949515496,8.494059166685991
3.1766700744628906,272.5300012622455,9.14756275170511
3.1766700744628906,277.2059347598794,9.831316788648557
3.1766700744628906,213.45886839995367,10.545554394945881
3.1766700744628906,174.57130960594057,11.290462638852262
3.1766700744628906,145.22395927429514,12.066182517379385
3.25207781791687,76.77014578137263,5.723311230446135e-06
3.25207781791687,104.05986457500825,5.1047648630402116e-05
3.25207781791687,16.972966964815164,0.00023030063738909188
3.25207781791687,251.98413170830534,0.000717856338365785
3.25207781791687,346.0718943310607,0.0017719103101444557
3.25207781791687,-31.670323660081067,0.0037345832261511266
3.25207781791687,-336.6847263785138,0.007031156573952042
3.25207781791687,-649.2614270117044,0.012166245263090538
3.25207781791687,-578.3435688187237,0.01971761454344256
3.25207781791687,-309.15078581829147,0.030329207387373477
3.25207781791687,-238.27676166988647,0.04470446415396983
3.25207781791687,31.88944951905256,0.06360036784540671
3.25207781791687,233.75230500320464,0.08782200503343097
3.25207781791687,325.5033585084768,0.1182172667720202
3.25207781791687,352.9930867429418,0.15567151947901064
3.25207781791687,310.30393900843114,0.201102210323534
3.25207781791687,291.8164868548311,0.2554534235235015
3.25207781791687,248.38277523453127,0.3196904424417081
3.25207781791687,193.25429330300906,0.39479438599424843
3.25207781791687,162.6771724364976,0.4817570313685903
3.25207781791687,92.22077797798869,0.5815760276860487
3.25207781791687,-39.34781431897514,0.6952506439705235
